Year,Month,Day,Hour,Min,Sec,Msec,P02S ECG,P02S G1,P02S G2,P02S G3
2018,12,4,16,55,49,188,-54.757118225097656,970.0,9643.0,4294964317.0
2018,12,4,16,55,49,192,-53.99894714355469,,,
2018,12,4,16,55,49,196,-53.35235595703125,,,
2018,12,4,16,55,49,200,-52.903175354003906,,,
2018,12,4,16,55,49,204,-53.223609924316406,,,
2018,12,4,16,55,49,207,-53.481101989746094,911.0,9604.0,4294964317.0
2018,12,4,16,55,49,211,-53.6041259765625,,,
2018,12,4,16,55,49,215,-53.524017333984375,,,
2018,12,4,16,55,49,219,-53.1463623046875,,,
2018,12,4,16,55,49,223,-53.39527130126953,,,
2018,12,4,16,55,49,227,-53.83872985839844,950.0,9604.0,4294964278.0
2018,12,4,16,55,49,231,-54.43382263183594,,,
2018,12,4,16,55,49,235,-54.665565490722656,,,
2018,12,4,16,55,49,239,-54.825782775878906,,,
2018,12,4,16,55,49,243,-55.16624450683594,,,
2018,12,4,16,55,49,247,-55.55534362792969,852.0,9643.0,4294964396.0
2018,12,4,16,55,49,250,-55.655479431152344,,,
2018,12,4,16,55,49,254,-55.63831329345703,,,
2018,12,4,16,55,49,258,-55.50384521484375,,,
2018,12,4,16,55,49,262,-55.7098388671875,,,
2018,12,4,16,55,49,266,-55.89008331298828,950.0,9662.0,4294964298.0
2018,12,4,16,55,49,270,-56.0760498046875,,,
2018,12,4,16,55,49,274,-55.89580535888672,,,
2018,12,4,16,55,49,278,-55.71269989013672,,,
2018,12,4,16,55,49,282,-55.678367614746094,,,
2018,12,4,16,55,49,286,-56.10179901123047,931.0,9662.0,4294964356.0
2018,12,4,16,55,49,290,-56.23340606689453,,,
2018,12,4,16,55,49,293,-56.121826171875,,,
2018,12,4,16,55,49,297,-55.84716796875,,,
2018,12,4,16,55,49,301,-55.87291717529297,,,
2018,12,4,16,55,49,305,-56.14185333251953,970.0,9682.0,4294964298.0
2018,12,4,16,55,49,309,-56.270599365234375,,,
2018,12,4,16,55,49,313,-56.14185333251953,,,
2018,12,4,16,55,49,317,-55.64689636230469,,,
2018,12,4,16,55,49,321,-55.13477325439453,,,
2018,12,4,16,55,49,325,-54.13627624511719,1029.0,9643.0,4294964317.0
2018,12,4,16,55,49,329,-53.01475524902344,,,
2018,12,4,16,55,49,332,-50.86326599121094,,,
2018,12,4,16,55,49,336,-48.668861389160156,,,
2018,12,4,16,55,49,340,-45.9136962890625,,,
2018,12,4,16,55,49,344,-44.663429260253906,1048.0,9682.0,4294964278.0
2018,12,4,16,55,49,348,-47.06096649169922,,,
2018,12,4,16,55,49,352,-51.283836364746094,,,
2018,12,4,16,55,49,356,-55.66978454589844,,,
2018,12,4,16,55,49,360,-61.695098876953125,,,
2018,12,4,16,55,49,364,-67.52872467041016,989.0,9662.0,4294964317.0
2018,12,4,16,55,49,368,-69.80609893798828,,,
2018,12,4,16,55,49,372,-69.5486068725586,,,
2018,12,4,16,55,49,375,-67.91496276855469,,,
2018,12,4,16,55,49,379,-64.75639343261719,,,
2018,12,4,16,55,49,383,-62.430381774902344,1009.0,9702.0,4294964356.0
2018,12,4,16,55,49,387,-60.482025146484375,,,
2018,12,4,16,55,49,391,-58.04729461669922,,,
2018,12,4,16,55,49,395,-56.89430236816406,,,
2018,12,4,16,55,49,399,-56.37645721435547,,,
2018,12,4,16,55,49,403,-56.27918243408203,931.0,9584.0,4294964337.0
2018,12,4,16,55,49,407,-56.28204345703125,,,
2018,12,4,16,55,49,411,-56.14471435546875,,,
2018,12,4,16,55,49,415,-55.812835693359375,,,
2018,12,4,16,55,49,418,-55.446624755859375,,,
2018,12,4,16,55,49,422,-55.36937713623047,931.0,9604.0,4294964278.0
2018,12,4,16,55,49,426,-55.518150329589844,,,
2018,12,4,16,55,49,430,-55.403709411621094,,,
2018,12,4,16,55,49,434,-55.106163024902344,,,
2018,12,4,16,55,49,438,-54.854393005371094,,,
2018,12,4,16,55,49,442,-54.91161346435547,970.0,9525.0,4294964356.0
2018,12,4,16,55,49,446,-55.100440979003906,,,
2018,12,4,16,55,49,450,-55.151939392089844,,,
2018,12,4,16,55,49,454,-54.90589141845703,,,
2018,12,4,16,55,49,457,-54.65412139892578,,,
2018,12,4,16,55,49,461,-54.66270446777344,989.0,9564.0,4294964396.0
2018,12,4,16,55,49,465,-54.91447448730469,,,
2018,12,4,16,55,49,469,-55.008888244628906,,,
2018,12,4,16,55,49,473,-54.86869812011719,,,
2018,12,4,16,55,49,477,-54.47673797607422,,,
2018,12,4,16,55,49,481,-54.370880126953125,833.0,9486.0,4294964298.0
2018,12,4,16,55,49,485,-54.44812774658203,,,
2018,12,4,16,55,49,489,-54.508209228515625,,,
2018,12,4,16,55,49,493,-54.279327392578125,,,
2018,12,4,16,55,49,497,-53.95317077636719,,,
2018,12,4,16,55,49,500,-53.867340087890625,891.0,9604.0,4294964180.0
2018,12,4,16,55,49,504,-54.05616760253906,,,
2018,12,4,16,55,49,508,-54.15916442871094,,,
2018,12,4,16,55,49,512,-53.90739440917969,,,
2018,12,4,16,55,49,516,-53.50971221923828,,,
2018,12,4,16,55,49,520,-53.22074890136719,891.0,9525.0,4294964396.0
2018,12,4,16,55,49,524,-53.26080322265625,,,
2018,12,4,16,55,49,528,-53.338050842285156,,,
2018,12,4,16,55,49,532,-53.223609924316406,,,
2018,12,4,16,55,49,536,-52.68573760986328,,,
2018,12,4,16,55,49,540,-52.474021911621094,989.0,9564.0,4294964376.0
2018,12,4,16,55,49,543,-52.55413055419922,,,
2018,12,4,16,55,49,547,-52.67143249511719,,,
2018,12,4,16,55,49,551,-52.56843566894531,,,
2018,12,4,16,55,49,555,-52.23655700683594,,,
2018,12,4,16,55,49,559,-51.601409912109375,872.0,9702.0,4294964356.0
2018,12,4,16,55,49,563,-51.81312561035156,,,
2018,12,4,16,55,49,567,-52.05345153808594,,,
2018,12,4,16,55,49,571,-51.91326141357422,,,
2018,12,4,16,55,49,575,-51.64146423339844,,,
2018,12,4,16,55,49,579,-51.392555236816406,931.0,9702.0,4294964278.0
2018,12,4,16,55,49,582,-51.54705047607422,,,
2018,12,4,16,55,49,586,-51.79595947265625,,,
2018,12,4,16,55,49,590,-51.79882049560547,,,
2018,12,4,16,55,49,594,-51.66149139404297,,,
2018,12,4,16,55,49,598,-51.50127410888672,872.0,9662.0,4294964298.0
2018,12,4,16,55,49,602,-51.84173583984375,,,
2018,12,4,16,55,49,606,-51.810264587402344,,,
2018,12,4,16,55,49,610,-51.99623107910156,,,
2018,12,4,16,55,49,614,-51.86748504638672,,,
2018,12,4,16,55,49,618,-51.77021026611328,989.0,9623.0,4294964278.0
2018,12,4,16,55,49,622,-51.924705505371094,,,
2018,12,4,16,55,49,625,-52.268028259277344,,,
2018,12,4,16,55,49,629,-52.382469177246094,,,
2018,12,4,16,55,49,633,-52.219390869140625,,,
2018,12,4,16,55,49,637,-51.993370056152344,931.0,9564.0,4294964356.0
2018,12,4,16,55,49,641,-52.062034606933594,,,
2018,12,4,16,55,49,645,-52.37388610839844,,,
2018,12,4,16,55,49,649,-52.63710021972656,,,
2018,12,4,16,55,49,653,-52.702903747558594,,,
2018,12,4,16,55,49,657,-52.67143249511719,833.0,9623.0,4294964337.0
2018,12,4,16,55,49,661,-52.59418487548828,,,
2018,12,4,16,55,49,665,-53.03764343261719,,,
2018,12,4,16,55,49,668,-53.26652526855469,,,
2018,12,4,16,55,49,672,-53.524017333984375,,,
2018,12,4,16,55,49,676,-53.48968505859375,911.0,9525.0,4294964278.0
2018,12,4,16,55,49,680,-53.65562438964844,,,
2018,12,4,16,55,49,684,-54.03900146484375,,,
2018,12,4,16,55,49,688,-54.37946319580078,,,
2018,12,4,16,55,49,692,-54.511070251464844,,,
2018,12,4,16,55,49,696,-54.28504943847656,950.0,9584.0,4294964278.0
2018,12,4,16,55,49,700,-54.256439208984375,,,
2018,12,4,16,55,49,704,-54.49962615966797,,,
2018,12,4,16,55,49,707,-54.757118225097656,,,
2018,12,4,16,55,49,711,-54.90303039550781,,,
2018,12,4,16,55,49,715,-54.808616638183594,911.0,9643.0,4294964239.0
2018,12,4,16,55,49,719,-54.58545684814453,,,
2018,12,4,16,55,49,723,-54.642677307128906,,,
2018,12,4,16,55,49,727,-54.91161346435547,,,
2018,12,4,16,55,49,731,-54.54540252685547,,,
2018,12,4,16,55,49,735,-54.29363250732422,872.0,9682.0,4294964239.0
2018,12,4,16,55,49,739,-54.167747497558594,,,
2018,12,4,16,55,49,743,-54.31938171386719,,,
2018,12,4,16,55,49,747,-54.505348205566406,,,
2018,12,4,16,55,49,750,-54.63123321533203,,,
2018,12,4,16,55,49,754,-54.30793762207031,891.0,9623.0,4294964239.0
2018,12,4,16,55,49,758,-54.08477783203125,,,
2018,12,4,16,55,49,762,-54.26216125488281,,,
2018,12,4,16,55,49,766,-54.50248718261719,,,
2018,12,4,16,55,49,770,-54.56256866455078,,,
2018,12,4,16,55,49,774,-54.436683654785156,931.0,9604.0,4294964121.0
2018,12,4,16,55,49,778,-54.12483215332031,,,
2018,12,4,16,55,49,782,-54.121971130371094,,,
2018,12,4,16,55,49,786,-54.368019104003906,,,
2018,12,4,16,55,49,790,-54.473876953125,,,
2018,12,4,16,55,49,793,-54.47101593017578,970.0,9604.0,4294964356.0
2018,12,4,16,55,49,797,-54.40235137939453,,,
2018,12,4,16,55,49,801,-54.419517517089844,,,
2018,12,4,16,55,49,805,-54.53968048095703,,,
2018,12,4,16,55,49,809,-54.780006408691406,,,
2018,12,4,16,55,49,813,-54.576873779296875,950.0,9662.0,4294964317.0
2018,12,4,16,55,49,817,-54.33082580566406,,,
2018,12,4,16,55,49,821,-54.279327392578125,,,
2018,12,4,16,55,49,825,-54.60834503173828,,,
2018,12,4,16,55,49,829,-54.79145050048828,,,
2018,12,4,16,55,49,832,-54.86011505126953,931.0,9662.0,4294964219.0
2018,12,4,16,55,49,836,-54.63409423828125,,,
2018,12,4,16,55,49,840,-54.58545684814453,,,
2018,12,4,16,55,49,844,-54.86297607421875,,,
2018,12,4,16,55,49,848,-55.02891540527344,,,
2018,12,4,16,55,49,852,-55.037498474121094,970.0,9623.0,4294964337.0
2018,12,4,16,55,49,856,-54.642677307128906,,,
2018,12,4,16,55,49,860,-54.31652069091797,,,
2018,12,4,16,55,49,864,-54.63123321533203,,,
2018,12,4,16,55,49,868,-54.988861083984375,,,
2018,12,4,16,55,49,872,-54.98027801513672,931.0,9643.0,4294964258.0
2018,12,4,16,55,49,875,-54.74567413330078,,,
2018,12,4,16,55,49,879,-54.69989776611328,,,
2018,12,4,16,55,49,883,-54.96025085449219,,,
2018,12,4,16,55,49,887,-55.20057678222656,,,
2018,12,4,16,55,49,891,-55.2520751953125,989.0,9702.0,4294964239.0
2018,12,4,16,55,49,895,-55.080413818359375,,,
2018,12,4,16,55,49,899,-54.84294891357422,,,
2018,12,4,16,55,49,903,-54.91447448730469,,,
2018,12,4,16,55,49,907,-55.266380310058594,,,
2018,12,4,16,55,49,911,-55.29212951660156,989.0,9623.0,4294964258.0
2018,12,4,16,55,49,915,-55.13191223144531,,,
2018,12,4,16,55,49,918,-54.83722686767578,,,
2018,12,4,16,55,49,922,-54.396629333496094,,,
2018,12,4,16,55,49,926,-54.72278594970703,,,
2018,12,4,16,55,49,930,-54.943084716796875,1029.0,9643.0,4294964317.0
2018,12,4,16,55,49,934,-54.74853515625,,,
2018,12,4,16,55,49,938,-54.625511169433594,,,
2018,12,4,16,55,49,942,-54.694175720214844,,,
2018,12,4,16,55,49,946,-55.0689697265625,,,
2018,12,4,16,55,49,950,-55.20915985107422,1009.0,9604.0,4294964317.0
2018,12,4,16,55,49,954,-55.034637451171875,,,
2018,12,4,16,55,49,957,-54.71992492675781,,,
2018,12,4,16,55,49,961,-54.75425720214844,,,
2018,12,4,16,55,49,965,-55.07183074951172,,,
2018,12,4,16,55,49,969,-55.17768859863281,989.0,9662.0,4294964317.0
2018,12,4,16,55,49,973,-55.15766143798828,,,
2018,12,4,16,55,49,977,-54.88014221191406,,,
2018,12,4,16,55,49,981,-54.86869812011719,,,
2018,12,4,16,55,49,985,-54.963111877441406,,,
2018,12,4,16,55,49,989,-55.04608154296875,1009.0,9545.0,4294964317.0
2018,12,4,16,55,49,993,-54.77428436279297,,,
2018,12,4,16,55,49,997,-54.322242736816406,,,
2018,12,4,16,55,50,0,-54.21638488769531,,,
2018,12,4,16,55,50,4,-54.373741149902344,,,
2018,12,4,16,55,50,8,-54.62837219238281,931.0,9564.0,4294964278.0
2018,12,4,16,55,50,12,-54.63409423828125,,,
2018,12,4,16,55,50,16,-53.9703369140625,,,
2018,12,4,16,55,50,20,-53.44390869140625,,,
2018,12,4,16,55,50,24,-53.05767059326172,,,
2018,12,4,16,55,50,28,-52.974700927734375,931.0,9623.0,4294964356.0
2018,12,4,16,55,50,32,-52.677154541015625,,,
2018,12,4,16,55,50,36,-52.313804626464844,,,
2018,12,4,16,55,50,40,-52.25372314453125,,,
2018,12,4,16,55,50,43,-52.52265930175781,,,
2018,12,4,16,55,50,47,-52.931785583496094,931.0,9545.0,4294964298.0
2018,12,4,16,55,50,51,-52.811622619628906,,,
2018,12,4,16,55,50,55,-52.642822265625,,,
2018,12,4,16,55,50,59,-52.519798278808594,,,
2018,12,4,16,55,50,63,-53.06053161621094,,,
2018,12,4,16,55,50,67,-53.87306213378906,891.0,9623.0,4294964376.0
2018,12,4,16,55,50,71,-54.511070251464844,,,
2018,12,4,16,55,50,75,-54.5654296875,,,
2018,12,4,16,55,50,79,-54.52537536621094,,,
2018,12,4,16,55,50,82,-54.714202880859375,,,
2018,12,4,16,55,50,86,-55.13763427734375,950.0,9623.0,4294964258.0
2018,12,4,16,55,50,90,-55.31501770019531,,,
2018,12,4,16,55,50,94,-55.11188507080078,,,
2018,12,4,16,55,50,98,-54.93736267089844,,,
2018,12,4,16,55,50,102,-55.054664611816406,,,
2018,12,4,16,55,50,106,-55.355072021484375,1048.0,9643.0,4294964258.0
2018,12,4,16,55,50,110,-55.59825897216797,,,
2018,12,4,16,55,50,114,-55.34934997558594,,,
2018,12,4,16,55,50,118,-54.968833923339844,,,
2018,12,4,16,55,50,122,-54.98027801513672,,,
2018,12,4,16,55,50,125,-55.48095703125,970.0,9760.0,4294964200.0
2018,12,4,16,55,50,129,-55.60111999511719,,,
2018,12,4,16,55,50,133,-55.5267333984375,,,
2018,12,4,16,55,50,137,-55.13477325439453,,,
2018,12,4,16,55,50,141,-55.194854736328125,,,
2018,12,4,16,55,50,145,-55.446624755859375,970.0,9643.0,4294964298.0
2018,12,4,16,55,50,149,-55.443763732910156,,,
2018,12,4,16,55,50,153,-54.85725402832031,,,
2018,12,4,16,55,50,157,-53.14922332763672,,,
2018,12,4,16,55,50,161,-51.61285400390625,,,
2018,12,4,16,55,50,165,-49.70741271972656,,,
2018,12,4,16,55,50,168,-47.51873016357422,,,
2018,12,4,16,55,50,172,-44.76642608642578,,,
2018,12,4,16,55,50,176,-42.6177978515625,,,
2018,12,4,16,55,50,180,-43.75934600830078,,,
2018,12,4,16,55,50,184,-48.10523986816406,,,
2018,12,4,16,55,50,188,-53.681373596191406,,,
2018,12,4,16,55,50,192,-60.090065002441406,,,
2018,12,4,16,55,50,196,-66.2984848022461,,,
2018,12,4,16,55,50,200,-69.51141357421875,,,
2018,12,4,16,55,50,204,-70.04928588867188,9662.0,4294964298.0,1048.0
2018,12,4,16,55,50,207,-67.57164001464844,,,
2018,12,4,16,55,50,211,-64.24713134765625,,,
2018,12,4,16,55,50,215,-61.79523468017578,,,
2018,12,4,16,55,50,219,-58.84265899658203,,,
2018,12,4,16,55,50,223,-56.81133270263672,9662.0,4294964356.0,1009.0
2018,12,4,16,55,50,227,-56.49089813232422,,,
2018,12,4,16,55,50,231,-56.365013122558594,,,
2018,12,4,16,55,50,235,-55.76133728027344,,,
2018,12,4,16,55,50,239,-55.400848388671875,,,
2018,12,4,16,55,50,243,-55.48381805419922,9623.0,4294964258.0,1068.0
2018,12,4,16,55,50,247,-55.744171142578125,,,
2018,12,4,16,55,50,250,-55.655479431152344,,,
2018,12,4,16,55,50,254,-55.1605224609375,,,
2018,12,4,16,55,50,258,-54.67414855957031,,,
2018,12,4,16,55,50,262,-54.688453674316406,9564.0,4294964258.0,1185.0
2018,12,4,16,55,50,266,-54.88300323486328,,,
2018,12,4,16,55,50,270,-55.008888244628906,,,
2018,12,4,16,55,50,274,-54.65126037597656,,,
2018,12,4,16,55,50,278,-54.368019104003906,,,
2018,12,4,16,55,50,282,-54.37946319580078,9584.0,4294964258.0,1127.0
2018,12,4,16,55,50,286,-54.656982421875,,,
2018,12,4,16,55,50,290,-54.717063903808594,,,
2018,12,4,16,55,50,293,-54.37946319580078,,,
2018,12,4,16,55,50,297,-53.99322509765625,,,
2018,12,4,16,55,50,301,-53.841590881347656,9662.0,4294964376.0,989.0
2018,12,4,16,55,50,305,-54.53681945800781,,,
2018,12,4,16,55,50,309,-54.347991943359375,,,
2018,12,4,16,55,50,313,-54.05902862548828,,,
2018,12,4,16,55,50,317,-53.569793701171875,,,
2018,12,4,16,55,50,321,-53.475379943847656,9525.0,4294964454.0,1009.0
2018,12,4,16,55,50,325,-53.62129211425781,,,
2018,12,4,16,55,50,329,-53.80439758300781,,,
2018,12,4,16,55,50,332,-53.65276336669922,,,
2018,12,4,16,55,50,336,-53.21502685546875,,,
2018,12,4,16,55,50,340,-52.994728088378906,9643.0,4294964258.0,1048.0
2018,12,4,16,55,50,344,-53.12061309814453,,,
2018,12,4,16,55,50,348,-53.252220153808594,,,
2018,12,4,16,55,50,352,-53.09486389160156,,,
2018,12,4,16,55,50,356,-52.68287658691406,,,
2018,12,4,16,55,50,360,-52.36244201660156,9525.0,4294964298.0,1146.0
2018,12,4,16,55,50,364,-52.46543884277344,,,
2018,12,4,16,55,50,368,-52.57129669189453,,,
2018,12,4,16,55,50,372,-52.22797393798828,,,
2018,12,4,16,55,50,375,-51.65576934814453,,,
2018,12,4,16,55,50,379,-51.40972137451172,9545.0,4294964376.0,1068.0
2018,12,4,16,55,50,383,-51.575660705566406,,,
2018,12,4,16,55,50,387,-51.81312561035156,,,
2018,12,4,16,55,50,391,-51.69868469238281,,,
2018,12,4,16,55,50,395,-51.29528045654297,,,
2018,12,4,16,55,50,399,-50.95195770263672,9662.0,4294964415.0,1048.0
2018,12,4,16,55,50,403,-51.166534423828125,,,
2018,12,4,16,55,50,407,-51.361083984375,,,
2018,12,4,16,55,50,411,-51.306724548339844,,,
2018,12,4,16,55,50,415,-50.911903381347656,,,
2018,12,4,16,55,50,418,-50.614356994628906,9702.0,4294964337.0,1107.0
2018,12,4,16,55,50,422,-50.774574279785156,,,
2018,12,4,16,55,50,426,-51.09214782714844,,,
2018,12,4,16,55,50,430,-51.192283630371094,,,
2018,12,4,16,55,50,434,-51.44691467285156,,,
2018,12,4,16,55,50,438,-51.19514465332031,9721.0,4294964396.0,1087.0
2018,12,4,16,55,50,442,-51.120758056640625,,,
2018,12,4,16,55,50,446,-51.52130126953125,,,
2018,12,4,16,55,50,450,-51.64146423339844,,,
2018,12,4,16,55,50,454,-51.50413513183594,,,
2018,12,4,16,55,50,457,-51.24664306640625,9702.0,4294964435.0,1127.0
2018,12,4,16,55,50,461,-51.33819580078125,,,
2018,12,4,16,55,50,465,-51.74732208251953,,,
2018,12,4,16,55,50,469,-51.9561767578125,,,
2018,12,4,16,55,50,473,-51.88751220703125,,,
2018,12,4,16,55,50,477,-51.627159118652344,9682.0,4294964376.0,1146.0
2018,12,4,16,55,50,481,-51.644325256347656,,,
2018,12,4,16,55,50,485,-52.09922790527344,,,
2018,12,4,16,55,50,489,-52.631378173828125,,,
2018,12,4,16,55,50,493,-52.73723602294922,,,
2018,12,4,16,55,50,497,-52.677154541015625,9643.0,4294964298.0,1146.0
2018,12,4,16,55,50,500,-52.90031433105469,,,
2018,12,4,16,55,50,504,-53.42388153076172,,,
2018,12,4,16,55,50,508,-53.890228271484375,,,
2018,12,4,16,55,50,512,-53.99036407470703,,,
2018,12,4,16,55,50,516,-53.910255432128906,9584.0,4294964376.0,1029.0
2018,12,4,16,55,50,520,-53.933143615722656,,,
2018,12,4,16,55,50,524,-54.390907287597656,,,
2018,12,4,16,55,50,528,-54.81433868408203,,,
2018,12,4,16,55,50,532,-54.86869812011719,,,
2018,12,4,16,55,50,536,-54.63695526123047,9604.0,4294964337.0,1127.0
2018,12,4,16,55,50,540,-54.46815490722656,,,
2018,12,4,16,55,50,543,-54.63695526123047,,,
2018,12,4,16,55,50,547,-54.91161346435547,,,
2018,12,4,16,55,50,551,-54.92591857910156,,,
2018,12,4,16,55,50,555,-54.576873779296875,9662.0,4294964376.0,1146.0
2018,12,4,16,55,50,559,-54.86869812011719,,,
2018,12,4,16,55,50,563,-55.6640625,,,
2018,12,4,16,55,50,567,-55.832862854003906,,,
2018,12,4,16,55,50,571,-55.632591247558594,,,
2018,12,4,16,55,50,575,-55.306434631347656,9623.0,4294964356.0,1215.0
2018,12,4,16,55,50,579,-55.00030517578125,,,
2018,12,4,16,55,50,582,-55.057525634765625,,,
2018,12,4,16,55,50,586,-55.286407470703125,,,
2018,12,4,16,55,50,590,-55.34934997558594,,,
2018,12,4,16,55,50,594,-54.98027801513672,9623.0,4294964396.0,1166.0
2018,12,4,16,55,50,598,-54.625511169433594,,,
2018,12,4,16,55,50,602,-54.691314697265625,,,
2018,12,4,16,55,50,606,-54.986000061035156,,,
2018,12,4,16,55,50,610,-55.083274841308594,,,
2018,12,4,16,55,50,614,-54.877281188964844,9682.0,4294964317.0,1205.0
2018,12,4,16,55,50,618,-54.44526672363281,,,
2018,12,4,16,55,50,622,-54.40235137939453,,,
2018,12,4,16,55,50,625,-54.8858642578125,,,
2018,12,4,16,55,50,629,-54.897308349609375,,,
2018,12,4,16,55,50,633,-54.62837219238281,9564.0,4294964337.0,1185.0
2018,12,4,16,55,50,637,-54.27360534667969,,,
2018,12,4,16,55,50,641,-54.347991943359375,,,
2018,12,4,16,55,50,645,-54.619789123535156,,,
2018,12,4,16,55,50,649,-54.86011505126953,,,
2018,12,4,16,55,50,653,-54.619789123535156,9623.0,4294964376.0,1087.0
2018,12,4,16,55,50,657,-54.276466369628906,,,
2018,12,4,16,55,50,661,-54.24785614013672,,,
2018,12,4,16,55,50,665,-54.505348205566406,,,
2018,12,4,16,55,50,668,-54.85725402832031,,,
2018,12,4,16,55,50,672,-54.74853515625,9525.0,4294964317.0,1146.0
2018,12,4,16,55,50,676,-54.442405700683594,,,
2018,12,4,16,55,50,680,-54.3365478515625,,,
2018,12,4,16,55,50,684,-54.59117889404297,,,
2018,12,4,16,55,50,688,-55.08613586425781,,,
2018,12,4,16,55,50,692,-55.031776428222656,9604.0,4294964415.0,1185.0
2018,12,4,16,55,50,696,-54.67700958251953,,,
2018,12,4,16,55,50,700,-54.53968048095703,,,
2018,12,4,16,55,50,704,-54.78858947753906,,,
2018,12,4,16,55,50,707,-55.18627166748047,,,
2018,12,4,16,55,50,711,-55.06610870361328,9682.0,4294964337.0,1185.0
2018,12,4,16,55,50,715,-54.68273162841797,,,
2018,12,4,16,55,50,719,-54.50248718261719,,,
2018,12,4,16,55,50,723,-54.75425720214844,,,
2018,12,4,16,55,50,727,-55.123329162597656,,,
2018,12,4,16,55,50,731,-55.206298828125,9702.0,4294964415.0,1205.0
2018,12,4,16,55,50,735,-54.940223693847656,,,
2018,12,4,16,55,50,739,-54.59117889404297,,,
2018,12,4,16,55,50,743,-54.77714538574219,,,
2018,12,4,16,55,50,747,-55.07183074951172,,,
2018,12,4,16,55,50,750,-55.106163024902344,9682.0,4294964337.0,1185.0
2018,12,4,16,55,50,754,-54.53681945800781,,,
2018,12,4,16,55,50,758,-54.419517517089844,,,
2018,12,4,16,55,50,762,-54.599761962890625,,,
2018,12,4,16,55,50,766,-54.89158630371094,,,
2018,12,4,16,55,50,770,-55.05180358886719,9623.0,4294964298.0,1185.0
2018,12,4,16,55,50,774,-54.77142333984375,,,
2018,12,4,16,55,50,778,-54.43096160888672,,,
2018,12,4,16,55,50,782,-54.556846618652344,,,
2018,12,4,16,55,50,786,-54.945945739746094,,,
2018,12,4,16,55,50,790,-55.077552795410156,9721.0,4294964337.0,1166.0
2018,12,4,16,55,50,793,-54.86297607421875,,,
2018,12,4,16,55,50,797,-54.47673797607422,,,
2018,12,4,16,55,50,801,-54.488182067871094,,,
2018,12,4,16,55,50,805,-54.802894592285156,,,
2018,12,4,16,55,50,809,-54.88300323486328,9741.0,4294964356.0,1166.0
2018,12,4,16,55,50,813,-54.81433868408203,,,
2018,12,4,16,55,50,817,-54.073333740234375,,,
2018,12,4,16,55,50,821,-53.772926330566406,,,
2018,12,4,16,55,50,825,-54.31079864501953,,,
2018,12,4,16,55,50,829,-54.56256866455078,9662.0,4294964356.0,1166.0
2018,12,4,16,55,50,832,-54.45671081542969,,,
2018,12,4,16,55,50,836,-54.207801818847656,,,
2018,12,4,16,55,50,840,-53.99036407470703,,,
2018,12,4,16,55,50,844,-54.12483215332031,,,
2018,12,4,16,55,50,848,-54.233551025390625,9584.0,4294964356.0,1215.0
2018,12,4,16,55,50,852,-54.13627624511719,,,
2018,12,4,16,55,50,856,-53.77006530761719,,,
2018,12,4,16,55,50,860,-53.71284484863281,,,
2018,12,4,16,55,50,864,-53.74431610107422,,,
2018,12,4,16,55,50,868,-53.53546142578125,9584.0,4294964356.0,1166.0
2018,12,4,16,55,50,872,-52.72865295410156,,,
2018,12,4,16,55,50,875,-52.11925506591797,,,
2018,12,4,16,55,50,879,-51.60713195800781,,,
2018,12,4,16,55,50,883,-51.86176300048828,,,
2018,12,4,16,55,50,887,-52.124977111816406,9643.0,4294964435.0,1215.0
2018,12,4,16,55,50,891,-52.130699157714844,,,
2018,12,4,16,55,50,895,-52.102088928222656,,,
2018,12,4,16,55,50,899,-51.964759826660156,,,
2018,12,4,16,55,50,903,-52.199363708496094,,,
2018,12,4,16,55,50,907,-52.71434783935547,9604.0,4294964278.0,1185.0
2018,12,4,16,55,50,911,-53.023338317871094,,,
2018,12,4,16,55,50,915,-53.089141845703125,,,
2018,12,4,16,55,50,918,-53.55548858642578,,,
2018,12,4,16,55,50,922,-53.99036407470703,,,
2018,12,4,16,55,50,926,-54.576873779296875,9623.0,4294964298.0,1146.0
2018,12,4,16,55,50,930,-54.854393005371094,,,
2018,12,4,16,55,50,934,-54.58831787109375,,,
2018,12,4,16,55,50,938,-54.473876953125,,,
2018,12,4,16,55,50,942,-54.59403991699219,,,
2018,12,4,16,55,50,946,-54.99744415283203,9623.0,4294964376.0,1185.0
2018,12,4,16,55,50,950,-55.240631103515625,,,
2018,12,4,16,55,50,954,-55.034637451171875,,,
2018,12,4,16,55,50,957,-54.67987060546875,,,
2018,12,4,16,55,50,961,-54.802894592285156,,,
2018,12,4,16,55,50,965,-55.06610870361328,9682.0,4294964278.0,1127.0
2018,12,4,16,55,50,969,-55.237770080566406,,,
2018,12,4,16,55,50,973,-55.060386657714844,,,
2018,12,4,16,55,50,977,-54.71992492675781,,,
2018,12,4,16,55,50,981,-54.68273162841797,,,
2018,12,4,16,55,50,985,-54.991722106933594,9623.0,4294964376.0,1166.0
2018,12,4,16,55,50,989,-55.13763427734375,,,
2018,12,4,16,55,50,993,-54.99744415283203,,,
2018,12,4,16,55,50,997,-54.553985595703125,,,
2018,12,4,16,55,51,0,-54.11052703857422,,,
2018,12,4,16,55,51,4,-53.375244140625,9623.0,4294964415.0,1185.0
2018,12,4,16,55,51,8,-52.010536193847656,,,
2018,12,4,16,55,51,12,-49.92198944091797,,,
2018,12,4,16,55,51,16,-46.683311462402344,,,
2018,12,4,16,55,51,20,-43.750762939453125,,,
2018,12,4,16,55,51,24,-41.301727294921875,9682.0,4294964376.0,1087.0
2018,12,4,16,55,51,28,-41.61643981933594,,,
2018,12,4,16,55,51,32,-44.38591003417969,,,
2018,12,4,16,55,51,36,-50.46272277832031,,,
2018,12,4,16,55,51,40,-56.3507080078125,,,
2018,12,4,16,55,51,43,-64.79930877685547,9643.0,4294964376.0,1127.0
2018,12,4,16,55,51,47,-70.46127319335938,,,
2018,12,4,16,55,51,51,-71.84886932373047,,,
2018,12,4,16,55,51,55,-68.18389892578125,,,
2018,12,4,16,55,51,59,-64.20707702636719,,,
2018,12,4,16,55,51,63,-61.90681457519531,9623.0,4294964317.0,1107.0
2018,12,4,16,55,51,67,-58.899879455566406,,,
2018,12,4,16,55,51,71,-56.6253662109375,,,
2018,12,4,16,55,51,75,-55.92155456542969,,,
2018,12,4,16,55,51,79,-55.389404296875,,,
2018,12,4,16,55,51,82,-55.32646179199219,9604.0,4294964337.0,1205.0
2018,12,4,16,55,51,86,-55.46092987060547,,,
2018,12,4,16,55,51,90,-55.31787872314453,,,
2018,12,4,16,55,51,94,-54.737091064453125,,,
2018,12,4,16,55,51,98,-54.279327392578125,,,
2018,12,4,16,55,51,102,-54.29649353027344,9682.0,4294964337.0,1205.0
2018,12,4,16,55,51,106,-54.473876953125,,,
2018,12,4,16,55,51,110,-54.436683654785156,,,
2018,12,4,16,55,51,114,-54.030418395996094,,,
2018,12,4,16,55,51,118,-53.6041259765625,,,
2018,12,4,16,55,51,122,-53.687095642089844,9584.0,4294964337.0,1205.0
2018,12,4,16,55,51,125,-53.99322509765625,,,
2018,12,4,16,55,51,129,-54.1534423828125,,,
2018,12,4,16,55,51,133,-53.80725860595703,,,
2018,12,4,16,55,51,137,-53.26366424560547,,,
2018,12,4,16,55,51,141,-52.98042297363281,9643.0,4294964376.0,1146.0
2018,12,4,16,55,51,145,-53.37810516357422,,,
2018,12,4,16,55,51,149,-53.49540710449219,,,
2018,12,4,16,55,51,153,-53.32660675048828,,,
2018,12,4,16,55,51,157,-52.84309387207031,,,
2018,12,4,16,55,51,161,-52.722930908203125,9623.0,4294964503.0,1068.0
2018,12,4,16,55,51,165,-52.90031433105469,,,
2018,12,4,16,55,51,168,-53.12061309814453,,,
2018,12,4,16,55,51,172,-52.883148193359375,,,
2018,12,4,16,55,51,176,-52.47688293457031,,,
2018,12,4,16,55,51,180,-52.276611328125,,,
2018,12,4,16,55,51,184,-52.559852600097656,,,
2018,12,4,16,55,51,188,-52.745819091796875,,,
2018,12,4,16,55,51,192,-52.62279510498047,,,
2018,12,4,16,55,51,196,-52.176475524902344,,,
2018,12,4,16,55,51,200,-51.9561767578125,9702.0,4294964356.0,1185.0
2018,12,4,16,55,51,204,-51.93328857421875,,,
2018,12,4,16,55,51,207,-52.20222473144531,,,
2018,12,4,16,55,51,211,-52.039146423339844,,,
2018,12,4,16,55,51,215,-51.672935485839844,,,
2018,12,4,16,55,51,219,-51.45263671875,9623.0,4294964435.0,1185.0
2018,12,4,16,55,51,223,-51.45835876464844,,,
2018,12,4,16,55,51,227,-51.74732208251953,,,
2018,12,4,16,55,51,231,-51.54132843017578,,,
2018,12,4,16,55,51,235,-51.08070373535156,,,
2018,12,4,16,55,51,239,-50.80604553222656,9584.0,4294964356.0,1127.0
2018,12,4,16,55,51,243,-50.92620849609375,,,
2018,12,4,16,55,51,247,-51.15509033203125,,,
2018,12,4,16,55,51,250,-50.99773406982422,,,
2018,12,4,16,55,51,254,-50.63438415527344,,,
2018,12,4,16,55,51,258,-50.322532653808594,9721.0,4294964278.0,1185.0
2018,12,4,16,55,51,262,-50.39691925048828,,,
2018,12,4,16,55,51,266,-50.477027893066406,,,
2018,12,4,16,55,51,270,-50.42552947998047,,,
2018,12,4,16,55,51,274,-50.18806457519531,,,
2018,12,4,16,55,51,278,-49.81040954589844,9741.0,4294964415.0,1215.0
2018,12,4,16,55,51,282,-49.87907409667969,,,
2018,12,4,16,55,51,286,-50.26531219482422,,,
2018,12,4,16,55,51,290,-50.51708221435547,,,
2018,12,4,16,55,51,293,-50.345420837402344,,,
2018,12,4,16,55,51,297,-50.110816955566406,9682.0,4294964454.0,1166.0
2018,12,4,16,55,51,301,-50.251007080078125,,,
2018,12,4,16,55,51,305,-50.774574279785156,,,
2018,12,4,16,55,51,309,-50.97484588623047,,,
2018,12,4,16,55,51,313,-50.848960876464844,,,
2018,12,4,16,55,51,317,-50.63438415527344,9682.0,4294964454.0,1127.0
2018,12,4,16,55,51,321,-50.69446563720703,,,
2018,12,4,16,55,51,325,-51.100730895996094,,,
2018,12,4,16,55,51,329,-51.42402648925781,,,
2018,12,4,16,55,51,332,-51.489830017089844,,,
2018,12,4,16,55,51,336,-51.421165466308594,9760.0,4294964464.0,1087.0
2018,12,4,16,55,51,340,-51.544189453125,,,
2018,12,4,16,55,51,344,-52.102088928222656,,,
2018,12,4,16,55,51,348,-52.542686462402344,,,
2018,12,4,16,55,51,352,-52.720069885253906,,,
2018,12,4,16,55,51,356,-52.742958068847656,9721.0,4294964376.0,1107.0
2018,12,4,16,55,51,360,-52.825927734375,,,
2018,12,4,16,55,51,364,-53.46965789794922,,,
2018,12,4,16,55,51,368,-53.83872985839844,,,
2018,12,4,16,55,51,372,-53.97319793701172,,,
2018,12,4,16,55,51,375,-53.867340087890625,9643.0,4294964376.0,1146.0
2018,12,4,16,55,51,379,-53.76434326171875,,,
2018,12,4,16,55,51,383,-54.13627624511719,,,
2018,12,4,16,55,51,387,-54.59403991699219,,,
2018,12,4,16,55,51,391,-54.671287536621094,,,
2018,12,4,16,55,51,395,-54.436683654785156,9702.0,4294964298.0,1107.0
2018,12,4,16,55,51,399,-54.27360534667969,,,
2018,12,4,16,55,51,403,-54.488182067871094,,,
2018,12,4,16,55,51,407,-54.805755615234375,,,
2018,12,4,16,55,51,411,-54.98313903808594,,,
2018,12,4,16,55,51,415,-54.656982421875,9584.0,4294964415.0,1146.0
2018,12,4,16,55,51,418,-54.485321044921875,,,
2018,12,4,16,55,51,422,-54.656982421875,,,
2018,12,4,16,55,51,426,-55.00316619873047,,,
2018,12,4,16,55,51,430,-55.008888244628906,,,
2018,12,4,16,55,51,434,-54.81433868408203,9721.0,4294964435.0,1048.0
2018,12,4,16,55,51,438,-54.47959899902344,,,
2018,12,4,16,55,51,442,-54.63409423828125,,,
2018,12,4,16,55,51,446,-54.923057556152344,,,
2018,12,4,16,55,51,450,-55.00030517578125,,,
2018,12,4,16,55,51,454,-54.88300323486328,9662.0,4294964503.0,1166.0
2018,12,4,16,55,51,457,-54.508209228515625,,,
2018,12,4,16,55,51,461,-54.393768310546875,,,
2018,12,4,16,55,51,465,-54.78858947753906,,,
2018,12,4,16,55,51,469,-54.92877960205078,,,
2018,12,4,16,55,51,473,-54.694175720214844,9604.0,4294964298.0,1068.0
2018,12,4,16,55,51,477,-54.413795471191406,,,
2018,12,4,16,55,51,481,-54.49676513671875,,,
2018,12,4,16,55,51,485,-54.84294891357422,,,
2018,12,4,16,55,51,489,-54.917335510253906,,,
2018,12,4,16,55,51,493,-54.74853515625,9643.0,4294964454.0,1009.0
2018,12,4,16,55,51,497,-54.396629333496094,,,
2018,12,4,16,55,51,500,-54.35657501220703,,,
2018,12,4,16,55,51,504,-54.65126037597656,,,
2018,12,4,16,55,51,508,-54.85725402832031,,,
2018,12,4,16,55,51,512,-54.802894592285156,9623.0,4294964484.0,1087.0
2018,12,4,16,55,51,516,-54.488182067871094,,,
2018,12,4,16,55,51,520,-54.07905578613281,,,
2018,12,4,16,55,51,524,-54.347991943359375,,,
2018,12,4,16,55,51,528,-54.757118225097656,,,
2018,12,4,16,55,51,532,-54.782867431640625,9682.0,4294964376.0,1087.0
2018,12,4,16,55,51,536,-54.49962615966797,,,
2018,12,4,16,55,51,540,-54.40807342529297,,,
2018,12,4,16,55,51,543,-54.642677307128906,,,
2018,12,4,16,55,51,547,-55.02605438232422,,,
2018,12,4,16,55,51,551,-55.07183074951172,9682.0,4294964415.0,1009.0
2018,12,4,16,55,51,555,-54.717063903808594,,,
2018,12,4,16,55,51,559,-54.53968048095703,,,
2018,12,4,16,55,51,563,-54.785728454589844,,,
2018,12,4,16,55,51,567,-55.22346496582031,,,
2018,12,4,16,55,51,571,-55.240631103515625,9643.0,4294964376.0,1068.0
2018,12,4,16,55,51,575,-55.05180358886719,,,
2018,12,4,16,55,51,579,-54.717063903808594,,,
2018,12,4,16,55,51,582,-54.831504821777344,,,
2018,12,4,16,55,51,586,-55.332183837890625,,,
2018,12,4,16,55,51,590,-55.472373962402344,9662.0,4294964415.0,989.0
2018,12,4,16,55,51,594,-55.18054962158203,,,
2018,12,4,16,55,51,598,-54.93450164794922,,,
2018,12,4,16,55,51,602,-55.129051208496094,,,
2018,12,4,16,55,51,606,-55.38368225097656,,,
2018,12,4,16,55,51,610,-55.54389953613281,9702.0,4294964376.0,1048.0
2018,12,4,16,55,51,614,-55.2520751953125,,,
2018,12,4,16,55,51,618,-54.95452880859375,,,
2018,12,4,16,55,51,622,-55.13763427734375,,,
2018,12,4,16,55,51,625,-55.50670623779297,,,
2018,12,4,16,55,51,629,-55.61542510986328,9623.0,4294964376.0,1107.0
2018,12,4,16,55,51,633,-55.515289306640625,,,
2018,12,4,16,55,51,637,-55.11760711669922,,,
2018,12,4,16,55,51,641,-55.169105529785156,,,
2018,12,4,16,55,51,645,-55.4351806640625,,,
2018,12,4,16,55,51,649,-55.81855773925781,9662.0,4294964435.0,989.0
2018,12,4,16,55,51,653,-55.91869354248047,,,
2018,12,4,16,55,51,657,-55.57537078857422,,,
2018,12,4,16,55,51,661,-55.45520782470703,,,
2018,12,4,16,55,51,665,-55.73558807373047,,,
2018,12,4,16,55,51,668,-55.96160888671875,9643.0,4294964435.0,1009.0
2018,12,4,16,55,51,672,-55.68695068359375,,,
2018,12,4,16,55,51,676,-55.39512634277344,,,
2018,12,4,16,55,51,680,-55.1605224609375,,,
2018,12,4,16,55,51,684,-55.2978515625,,,
2018,12,4,16,55,51,688,-55.6182861328125,9643.0,4294964396.0,1009.0
2018,12,4,16,55,51,692,-55.43231964111328,,,
2018,12,4,16,55,51,696,-55.16624450683594,,,
2018,12,4,16,55,51,700,-54.90303039550781,,,
2018,12,4,16,55,51,704,-54.75425720214844,,,
2018,12,4,16,55,51,707,-54.4281005859375,9623.0,4294964396.0,931.0
2018,12,4,16,55,51,711,-53.85017395019531,,,
2018,12,4,16,55,51,715,-53.69281768798828,,,
2018,12,4,16,55,51,719,-53.34663391113281,,,
2018,12,4,16,55,51,723,-53.60126495361328,,,
2018,12,4,16,55,51,727,-53.92169952392578,9682.0,4294964454.0,1048.0
2018,12,4,16,55,51,731,-53.95317077636719,,,
2018,12,4,16,55,51,735,-53.86161804199219,,,
2018,12,4,16,55,51,739,-53.704261779785156,,,
2018,12,4,16,55,51,743,-53.9703369140625,,,
2018,12,4,16,55,51,747,-54.60548400878906,9623.0,4294964415.0,1009.0
2018,12,4,16,55,51,750,-55.031776428222656,,,
2018,12,4,16,55,51,754,-55.41515350341797,,,
2018,12,4,16,55,51,758,-55.39226531982422,,,
2018,12,4,16,55,51,762,-55.61542510986328,,,
2018,12,4,16,55,51,766,-56.110382080078125,9604.0,4294964464.0,970.0
2018,12,4,16,55,51,770,-56.17332458496094,,,
2018,12,4,16,55,51,774,-56.015968322753906,,,
2018,12,4,16,55,51,778,-55.701255798339844,,,
2018,12,4,16,55,51,782,-55.789947509765625,,,
2018,12,4,16,55,51,786,-56.067466735839844,9682.0,4294964464.0,931.0
2018,12,4,16,55,51,790,-56.339263916015625,,,
2018,12,4,16,55,51,793,-56.12468719482422,,,
2018,12,4,16,55,51,797,-55.861473083496094,,,
2018,12,4,16,55,51,801,-55.94158172607422,,,
2018,12,4,16,55,51,805,-56.23340606689453,9682.0,4294964503.0,970.0
2018,12,4,16,55,51,809,-56.410789489746094,,,
2018,12,4,16,55,51,813,-56.19049072265625,,,
2018,12,4,16,55,51,817,-55.89008331298828,,,
2018,12,4,16,55,51,821,-55.85289001464844,,,
2018,12,4,16,55,51,825,-56.14185333251953,9682.0,4294964435.0,1068.0
2018,12,4,16,55,51,829,-56.39934539794922,,,
2018,12,4,16,55,51,832,-56.01310729980469,,,
2018,12,4,16,55,51,836,-55.289268493652344,,,
2018,12,4,16,55,51,840,-54.08763885498047,,,
2018,12,4,16,55,51,844,-52.857398986816406,9682.0,4294964435.0,1048.0
2018,12,4,16,55,51,848,-51.146507263183594,,,
2018,12,4,16,55,51,852,-48.969268798828125,,,
2018,12,4,16,55,51,856,-46.339988708496094,,,
2018,12,4,16,55,51,860,-44.005393981933594,,,
2018,12,4,16,55,51,864,-44.47746276855469,9662.0,4294964396.0,989.0
2018,12,4,16,55,51,868,-48.68888854980469,,,
2018,12,4,16,55,51,872,-53.31230163574219,,,
2018,12,4,16,55,51,875,-58.75968933105469,,,
2018,12,4,16,55,51,879,-65.19699096679688,,,
2018,12,4,16,55,51,883,-69.39125061035156,9721.0,4294964435.0,1029.0
2018,12,4,16,55,51,887,-70.30963897705078,,,
2018,12,4,16,55,51,891,-68.89915466308594,,,
2018,12,4,16,55,51,895,-65.4458999633789,,,
2018,12,4,16,55,51,899,-62.630653381347656,,,
2018,12,4,16,55,51,903,-60.77384948730469,9682.0,4294964484.0,1009.0
2018,12,4,16,55,51,907,-58.261871337890625,,,
2018,12,4,16,55,51,911,-57.24620819091797,,,
2018,12,4,16,55,51,915,-56.616783142089844,,,
2018,12,4,16,55,51,918,-56.18476867675781,,,
2018,12,4,16,55,51,922,-56.153297424316406,9721.0,4294964484.0,1068.0
2018,12,4,16,55,51,926,-56.37073516845703,,,
2018,12,4,16,55,51,930,-56.34498596191406,,,
2018,12,4,16,55,51,934,-55.901527404785156,,,
2018,12,4,16,55,51,938,-55.446624755859375,,,
2018,12,4,16,55,51,942,-55.28068542480469,9604.0,4294964337.0,1068.0
2018,12,4,16,55,51,946,-55.561065673828125,,,
2018,12,4,16,55,51,950,-55.57537078857422,,,
2018,12,4,16,55,51,954,-55.240631103515625,,,
2018,12,4,16,55,51,957,-54.96025085449219,,,
2018,12,4,16,55,51,961,-55.106163024902344,9682.0,4294964582.0,1009.0
2018,12,4,16,55,51,965,-55.34648895263672,,,
2018,12,4,16,55,51,969,-55.403709411621094,,,
2018,12,4,16,55,51,973,-54.900169372558594,,,
2018,12,4,16,55,51,977,-54.551124572753906,,,
2018,12,4,16,55,51,981,-54.556846618652344,9721.0,4294964317.0,931.0
2018,12,4,16,55,51,985,-54.81719970703125,,,
2018,12,4,16,55,51,989,-54.92591857910156,,,
2018,12,4,16,55,51,993,-54.61406707763672,,,
2018,12,4,16,55,51,997,-54.19635772705078,,,
2018,12,4,16,55,52,0,-54.167747497558594,9682.0,4294964454.0,911.0
2018,12,4,16,55,52,4,-54.39949035644531,,,
2018,12,4,16,55,52,8,-54.511070251464844,,,
2018,12,4,16,55,52,12,-54.35943603515625,,,
2018,12,4,16,55,52,16,-53.83872985839844,,,
2018,12,4,16,55,52,20,-53.73573303222656,9721.0,4294964239.0,989.0
2018,12,4,16,55,52,24,-53.847312927246094,,,
2018,12,4,16,55,52,28,-53.99322509765625,,,
2018,12,4,16,55,52,32,-53.78437042236328,,,
2018,12,4,16,55,52,36,-53.435325622558594,,,
2018,12,4,16,55,52,40,-53.14064025878906,9604.0,4294964464.0,1009.0
2018,12,4,16,55,52,43,-53.37810516357422,,,
2018,12,4,16,55,52,47,-53.55548858642578,,,
2018,12,4,16,55,52,51,-53.366661071777344,,,
2018,12,4,16,55,52,55,-52.92320251464844,,,
2018,12,4,16,55,52,59,-52.53410339355469,9623.0,4294964464.0,1009.0
2018,12,4,16,55,52,63,-52.588462829589844,,,
2018,12,4,16,55,52,67,-52.734375,,,
2018,12,4,16,55,52,71,-52.725791931152344,,,
2018,12,4,16,55,52,75,-52.29949951171875,,,
2018,12,4,16,55,52,79,-51.93042755126953,9721.0,4294964435.0,970.0
2018,12,4,16,55,52,82,-52.11067199707031,,,
2018,12,4,16,55,52,86,-52.29663848876953,,,
2018,12,4,16,55,52,90,-52.219390869140625,,,
2018,12,4,16,55,52,94,-51.804542541503906,,,
2018,12,4,16,55,52,98,-51.36680603027344,9741.0,4294964435.0,911.0
2018,12,4,16,55,52,102,-51.63288116455078,,,
2018,12,4,16,55,52,106,-52.02198028564453,,,
2018,12,4,16,55,52,110,-52.11353302001953,,,
2018,12,4,16,55,52,114,-51.88465118408203,,,
2018,12,4,16,55,52,118,-51.575660705566406,9662.0,4294964435.0,931.0
2018,12,4,16,55,52,122,-51.65576934814453,,,
2018,12,4,16,55,52,125,-52.09064483642578,,,
2018,12,4,16,55,52,129,-52.285194396972656,,,
2018,12,4,16,55,52,133,-52.03056335449219,,,
2018,12,4,16,55,52,137,-51.70440673828125,9643.0,4294964415.0,1009.0
2018,12,4,16,55,52,141,-51.84173583984375,,,
2018,12,4,16,55,52,145,-52.32524871826172,,,
2018,12,4,16,55,52,149,-52.48832702636719,,,
2018,12,4,16,55,52,153,-52.27947235107422,,,
2018,12,4,16,55,52,157,-52.062034606933594,9584.0,4294964464.0,950.0
2018,12,4,16,55,52,161,-52.09636688232422,,,
2018,12,4,16,55,52,165,-52.47974395751953,,,
2018,12,4,16,55,52,168,-52.974700927734375,,,
2018,12,4,16,55,52,172,-52.94036865234375,,,
2018,12,4,16,55,52,176,-52.78301239013672,,,
2018,12,4,16,55,52,180,-52.9632568359375,,,
2018,12,4,16,55,52,184,-53.526878356933594,,,
2018,12,4,16,55,52,188,-53.9703369140625,,,
2018,12,4,16,55,52,192,-54.01897430419922,,,
2018,12,4,16,55,52,196,-53.89595031738281,950.0,9682.0,4294964454.0
2018,12,4,16,55,52,200,-54.02183532714844,,,
2018,12,4,16,55,52,204,-54.49962615966797,,,
2018,12,4,16,55,52,207,-54.945945739746094,,,
2018,12,4,16,55,52,211,-55.00030517578125,,,
2018,12,4,16,55,52,215,-54.73136901855469,989.0,9604.0,4294964396.0
2018,12,4,16,55,52,219,-54.75425720214844,,,
2018,12,4,16,55,52,223,-54.831504821777344,,,
2018,12,4,16,55,52,227,-55.263519287109375,,,
2018,12,4,16,55,52,231,-55.443763732910156,,,
2018,12,4,16,55,52,235,-55.08613586425781,950.0,9662.0,4294964454.0
2018,12,4,16,55,52,239,-54.848670959472656,,,
2018,12,4,16,55,52,243,-55.11474609375,,,
2018,12,4,16,55,52,247,-55.403709411621094,,,
2018,12,4,16,55,52,250,-55.426597595214844,,,
2018,12,4,16,55,52,254,-55.05180358886719,989.0,9682.0,4294964317.0
2018,12,4,16,55,52,258,-54.73136901855469,,,
2018,12,4,16,55,52,262,-54.99744415283203,,,
2018,12,4,16,55,52,266,-55.20915985107422,,,
2018,12,4,16,55,52,270,-55.289268493652344,,,
2018,12,4,16,55,52,274,-54.917335510253906,911.0,9682.0,4294964464.0
2018,12,4,16,55,52,278,-54.62837219238281,,,
2018,12,4,16,55,52,282,-54.757118225097656,,,
2018,12,4,16,55,52,286,-55.05180358886719,,,
2018,12,4,16,55,52,290,-54.86011505126953,,,
2018,12,4,16,55,52,293,-54.645538330078125,911.0,9623.0,4294964317.0
2018,12,4,16,55,52,297,-54.34226989746094,,,
2018,12,4,16,55,52,301,-54.39949035644531,,,
2018,12,4,16,55,52,305,-54.622650146484375,,,
2018,12,4,16,55,52,309,-54.74853515625,,,
2018,12,4,16,55,52,313,-54.56256866455078,931.0,9584.0,4294964435.0
2018,12,4,16,55,52,317,-54.230690002441406,,,
2018,12,4,16,55,52,321,-54.25071716308594,,,
2018,12,4,16,55,52,325,-54.619789123535156,,,
2018,12,4,16,55,52,329,-54.645538330078125,,,
2018,12,4,16,55,52,332,-54.485321044921875,872.0,9584.0,4294964376.0
2018,12,4,16,55,52,336,-54.19349670410156,,,
2018,12,4,16,55,52,340,-54.13627624511719,,,
2018,12,4,16,55,52,344,-54.51679229736328,,,
2018,12,4,16,55,52,348,-54.79717254638672,,,
2018,12,4,16,55,52,352,-54.58259582519531,911.0,9545.0,4294964396.0
2018,12,4,16,55,52,356,-53.981781005859375,,,
2018,12,4,16,55,52,360,-53.978919982910156,,,
2018,12,4,16,55,52,364,-54.39949035644531,,,
2018,12,4,16,55,52,368,-54.831504821777344,,,
2018,12,4,16,55,52,372,-54.75425720214844,950.0,9623.0,4294964415.0
2018,12,4,16,55,52,375,-54.465293884277344,,,
2018,12,4,16,55,52,379,-54.2449951171875,,,
2018,12,4,16,55,52,383,-54.49390411376953,,,
2018,12,4,16,55,52,387,-54.85725402832031,,,
2018,12,4,16,55,52,391,-54.759979248046875,852.0,9643.0,4294964396.0
2018,12,4,16,55,52,395,-54.47959899902344,,,
2018,12,4,16,55,52,399,-54.350852966308594,,,
2018,12,4,16,55,52,403,-54.63409423828125,,,
2018,12,4,16,55,52,407,-55.00602722167969,,,
2018,12,4,16,55,52,411,-54.963111877441406,833.0,9643.0,4294964317.0
2018,12,4,16,55,52,415,-54.63409423828125,,,
2018,12,4,16,55,52,418,-54.59403991699219,,,
2018,12,4,16,55,52,422,-54.90589141845703,,,
2018,12,4,16,55,52,426,-55.103302001953125,,,
2018,12,4,16,55,52,430,-55.16624450683594,891.0,9623.0,4294964376.0
2018,12,4,16,55,52,434,-54.825782775878906,,,
2018,12,4,16,55,52,438,-54.508209228515625,,,
2018,12,4,16,55,52,442,-54.642677307128906,,,
2018,12,4,16,55,52,446,-55.031776428222656,,,
2018,12,4,16,55,52,450,-55.171966552734375,872.0,9662.0,4294964396.0
2018,12,4,16,55,52,454,-54.802894592285156,,,
2018,12,4,16,55,52,457,-54.45098876953125,,,
2018,12,4,16,55,52,461,-54.61692810058594,,,
2018,12,4,16,55,52,465,-54.92877960205078,,,
2018,12,4,16,55,52,469,-55.06324768066406,931.0,9662.0,4294964396.0
2018,12,4,16,55,52,473,-54.871559143066406,,,
2018,12,4,16,55,52,477,-54.42523956298828,,,
2018,12,4,16,55,52,481,-54.52537536621094,,,
2018,12,4,16,55,52,485,-55.014610290527344,,,
2018,12,4,16,55,52,489,-55.054664611816406,911.0,9623.0,4294964356.0
2018,12,4,16,55,52,493,-54.785728454589844,,,
2018,12,4,16,55,52,497,-54.505348205566406,,,
2018,12,4,16,55,52,500,-54.233551025390625,,,
2018,12,4,16,55,52,504,-54.15058135986328,,,
2018,12,4,16,55,52,508,-53.841590881347656,911.0,9643.0,4294964454.0
2018,12,4,16,55,52,512,-53.00331115722656,,,
2018,12,4,16,55,52,516,-52.494049072265625,,,
2018,12,4,16,55,52,520,-52.359580993652344,,,
2018,12,4,16,55,52,524,-52.57415771484375,,,
2018,12,4,16,55,52,528,-52.886009216308594,852.0,9702.0,4294964356.0
2018,12,4,16,55,52,532,-53.04908752441406,,,
2018,12,4,16,55,52,536,-52.75440216064453,,,
2018,12,4,16,55,52,540,-52.64568328857422,,,
2018,12,4,16,55,52,543,-52.94322967529297,,,
2018,12,4,16,55,52,547,-53.26366424560547,931.0,9662.0,4294964376.0
2018,12,4,16,55,52,551,-53.60126495361328,,,
2018,12,4,16,55,52,555,-53.961753845214844,,,
2018,12,4,16,55,52,559,-54.05616760253906,,,
2018,12,4,16,55,52,563,-54.67987060546875,,,
2018,12,4,16,55,52,567,-55.332183837890625,931.0,9702.0,4294964376.0
2018,12,4,16,55,52,571,-55.260658264160156,,,
2018,12,4,16,55,52,575,-55.04035949707031,,,
2018,12,4,16,55,52,579,-54.871559143066406,,,
2018,12,4,16,55,52,582,-55.06324768066406,,,
2018,12,4,16,55,52,586,-55.50670623779297,931.0,9643.0,4294964356.0
2018,12,4,16,55,52,590,-55.48381805419922,,,
2018,12,4,16,55,52,594,-55.129051208496094,,,
2018,12,4,16,55,52,598,-54.945945739746094,,,
2018,12,4,16,55,52,602,-55.011749267578125,,,
2018,12,4,16,55,52,606,-55.355072021484375,911.0,9643.0,4294964298.0
2018,12,4,16,55,52,610,-55.40657043457031,,,
2018,12,4,16,55,52,614,-55.30071258544922,,,
2018,12,4,16,55,52,618,-55.034637451171875,,,
2018,12,4,16,55,52,622,-55.07469177246094,,,
2018,12,4,16,55,52,625,-55.46092987060547,872.0,9604.0,4294964376.0
2018,12,4,16,55,52,629,-55.495262145996094,,,
2018,12,4,16,55,52,633,-55.13191223144531,,,
2018,12,4,16,55,52,637,-54.54826354980469,,,
2018,12,4,16,55,52,641,-53.64990234375,,,
2018,12,4,16,55,52,645,-52.69432067871094,970.0,9643.0,4294964415.0
2018,12,4,16,55,52,649,-51.163673400878906,,,
2018,12,4,16,55,52,653,-48.691749572753906,,,
2018,12,4,16,55,52,657,-46.12255096435547,,,
2018,12,4,16,55,52,661,-43.684959411621094,,,
2018,12,4,16,55,52,665,-43.44463348388672,950.0,9604.0,4294964396.0
2018,12,4,16,55,52,668,-46.76055908203125,,,
2018,12,4,16,55,52,672,-51.140785217285156,,,
2018,12,4,16,55,52,676,-56.18476867675781,,,
2018,12,4,16,55,52,680,-62.610626220703125,,,
2018,12,4,16,55,52,684,-67.73757934570312,950.0,9702.0,4294964396.0
2018,12,4,16,55,52,688,-69.21672821044922,,,
2018,12,4,16,55,52,692,-67.89207458496094,,,
2018,12,4,16,55,52,696,-64.47315216064453,,,
2018,12,4,16,55,52,700,-61.56349182128906,,,
2018,12,4,16,55,52,704,-59.958457946777344,950.0,9643.0,4294964376.0
2018,12,4,16,55,52,707,-57.403564453125,,,
2018,12,4,16,55,52,711,-56.05602264404297,,,
2018,12,4,16,55,52,715,-55.420875549316406,,,
2018,12,4,16,55,52,719,-55.13191223144531,,,
2018,12,4,16,55,52,723,-55.100440979003906,970.0,9604.0,4294964356.0
2018,12,4,16,55,52,727,-55.33790588378906,,,
2018,12,4,16,55,52,731,-55.09185791015625,,,
2018,12,4,16,55,52,735,-54.56256866455078,,,
2018,12,4,16,55,52,739,-54.01897430419922,,,
2018,12,4,16,55,52,743,-54.299354553222656,970.0,9643.0,4294964337.0
2018,12,4,16,55,52,747,-54.579734802246094,,,
2018,12,4,16,55,52,750,-54.40807342529297,,,
2018,12,4,16,55,52,754,-53.96747589111328,,,
2018,12,4,16,55,52,758,-53.661346435546875,,,
2018,12,4,16,55,52,762,-53.74717712402344,989.0,9702.0,4294964523.0
2018,12,4,16,55,52,766,-54.119110107421875,,,
2018,12,4,16,55,52,770,-54.139137268066406,,,
2018,12,4,16,55,52,774,-53.778648376464844,,,
2018,12,4,16,55,52,778,-53.572654724121094,,,
2018,12,4,16,55,52,782,-53.558349609375,931.0,9662.0,4294964376.0
2018,12,4,16,55,52,786,-53.847312927246094,,,
2018,12,4,16,55,52,790,-53.89881134033203,,,
2018,12,4,16,55,52,793,-53.57551574707031,,,
2018,12,4,16,55,52,797,-53.160667419433594,,,
2018,12,4,16,55,52,801,-53.18641662597656,911.0,9623.0,4294964376.0
2018,12,4,16,55,52,805,-53.26366424560547,,,
2018,12,4,16,55,52,809,-53.37238311767578,,,
2018,12,4,16,55,52,813,-53.063392639160156,,,
2018,12,4,16,55,52,817,-52.585601806640625,,,
2018,12,4,16,55,52,821,-52.516937255859375,931.0,9604.0,4294964298.0
2018,12,4,16,55,52,825,-52.74009704589844,,,
2018,12,4,16,55,52,829,-52.768707275390625,,,
2018,12,4,16,55,52,832,-52.496910095214844,,,
2018,12,4,16,55,52,836,-52.09636688232422,,,
2018,12,4,16,55,52,840,-51.86176300048828,989.0,9662.0,4294964396.0
2018,12,4,16,55,52,844,-52.124977111816406,,,
2018,12,4,16,55,52,848,-52.239418029785156,,,
2018,12,4,16,55,52,852,-51.97620391845703,,,
2018,12,4,16,55,52,856,-51.42402648925781,,,
2018,12,4,16,55,52,860,-51.209449768066406,1068.0,9643.0,4294964484.0
2018,12,4,16,55,52,864,-51.45835876464844,,,
2018,12,4,16,55,52,868,-51.303863525390625,,,
2018,12,4,16,55,52,872,-51.074981689453125,,,
2018,12,4,16,55,52,875,-50.63152313232422,,,
2018,12,4,16,55,52,879,-50.459861755371094,989.0,9760.0,4294964415.0
2018,12,4,16,55,52,883,-50.55999755859375,,,
2018,12,4,16,55,52,887,-50.72593688964844,,,
2018,12,4,16,55,52,891,-50.628662109375,,,
2018,12,4,16,55,52,895,-50.22239685058594,,,
2018,12,4,16,55,52,899,-49.96776580810547,1009.0,9760.0,4294964415.0
2018,12,4,16,55,52,903,-49.98207092285156,,,
2018,12,4,16,55,52,907,-50.339698791503906,,,
2018,12,4,16,55,52,911,-50.271034240722656,,,
2018,12,4,16,55,52,915,-49.98493194580078,,,
2018,12,4,16,55,52,918,-49.744606018066406,1068.0,9702.0,4294964503.0
2018,12,4,16,55,52,922,-49.98779296875,,,
2018,12,4,16,55,52,926,-50.43983459472656,,,
2018,12,4,16,55,52,930,-50.3082275390625,,,
2018,12,4,16,55,52,934,-49.973487854003906,,,
2018,12,4,16,55,52,938,-49.859046936035156,1048.0,9721.0,4294964435.0
2018,12,4,16,55,52,942,-50.01640319824219,,,
2018,12,4,16,55,52,946,-50.479888916015625,,,
2018,12,4,16,55,52,950,-50.64868927001953,,,
2018,12,4,16,55,52,954,-50.574302673339844,,,
2018,12,4,16,55,52,957,-50.33397674560547,1029.0,9662.0,4294964435.0
2018,12,4,16,55,52,961,-50.44841766357422,,,
2018,12,4,16,55,52,965,-50.9490966796875,,,
2018,12,4,16,55,52,969,-51.215171813964844,,,
2018,12,4,16,55,52,973,-51.169395446777344,,,
2018,12,4,16,55,52,977,-51.077842712402344,1029.0,9662.0,4294964454.0
2018,12,4,16,55,52,981,-51.37825012207031,,,
2018,12,4,16,55,52,985,-52.0477294921875,,,
2018,12,4,16,55,52,989,-52.471160888671875,,,
2018,12,4,16,55,52,993,-52.539825439453125,,,
2018,12,4,16,55,52,997,-52.768707275390625,1029.0,9682.0,4294964376.0
2018,12,4,16,55,53,0,-52.886009216308594,,,
2018,12,4,16,55,53,4,-53.366661071777344,,,
2018,12,4,16,55,53,8,-53.74717712402344,,,
2018,12,4,16,55,53,12,-53.752899169921875,,,
2018,12,4,16,55,53,16,-53.53546142578125,1068.0,9721.0,4294964415.0
2018,12,4,16,55,53,20,-53.5125732421875,,,
2018,12,4,16,55,53,24,-53.8787841796875,,,
2018,12,4,16,55,53,28,-54.167747497558594,,,
2018,12,4,16,55,53,32,-54.08477783203125,,,
2018,12,4,16,55,53,36,-53.732872009277344,1048.0,9662.0,4294964356.0
2018,12,4,16,55,53,40,-53.65276336669922,,,
2018,12,4,16,55,53,43,-53.978919982910156,,,
2018,12,4,16,55,53,47,-54.19349670410156,,,
2018,12,4,16,55,53,51,-54.12483215332031,,,
2018,12,4,16,55,53,55,-53.778648376464844,1087.0,9662.0,4294964337.0
2018,12,4,16,55,53,59,-53.64418029785156,,,
2018,12,4,16,55,53,63,-53.69281768798828,,,
2018,12,4,16,55,53,67,-53.97605895996094,,,
2018,12,4,16,55,53,71,-53.96461486816406,,,
2018,12,4,16,55,53,75,-53.64990234375,1009.0,9643.0,4294964484.0
2018,12,4,16,55,53,79,-53.343772888183594,,,
2018,12,4,16,55,53,82,-53.569793701171875,,,
2018,12,4,16,55,53,86,-53.864479064941406,,,
2018,12,4,16,55,53,90,-53.80725860595703,,,
2018,12,4,16,55,53,94,-53.40099334716797,1048.0,9682.0,4294964317.0
2018,12,4,16,55,53,98,-53.249359130859375,,,
2018,12,4,16,55,53,102,-53.466796875,,,
2018,12,4,16,55,53,106,-53.778648376464844,,,
2018,12,4,16,55,53,110,-53.69281768798828,,,
2018,12,4,16,55,53,114,-53.40385437011719,989.0,9545.0,4294964396.0
2018,12,4,16,55,53,118,-53.157806396484375,,,
2018,12,4,16,55,53,122,-53.229331970214844,,,
2018,12,4,16,55,53,125,-53.847312927246094,,,
2018,12,4,16,55,53,129,-53.818702697753906,,,
2018,12,4,16,55,53,133,-53.51543426513672,1009.0,9643.0,4294964484.0
2018,12,4,16,55,53,137,-53.28369140625,,,
2018,12,4,16,55,53,141,-53.366661071777344,,,
2018,12,4,16,55,53,145,-53.67565155029297,,,
2018,12,4,16,55,53,149,-53.775787353515625,,,
2018,12,4,16,55,53,153,-53.635597229003906,989.0,9682.0,4294964464.0
2018,12,4,16,55,53,157,-53.33232879638672,,,
2018,12,4,16,55,53,161,-53.35235595703125,,,
2018,12,4,16,55,53,165,-53.750038146972656,,,
2018,12,4,16,55,53,168,-53.978919982910156,,,
2018,12,4,16,55,53,172,-53.844451904296875,,,
2018,12,4,16,55,53,176,-53.572654724121094,,,
2018,12,4,16,55,53,180,-53.55548858642578,,,
2018,12,4,16,55,53,184,-53.85303497314453,,,
2018,12,4,16,55,53,188,-53.56121063232422,,,
2018,12,4,16,55,53,192,-53.60698699951172,1029.0,9643.0,4294964464.0
2018,12,4,16,55,53,196,-53.375244140625,,,
2018,12,4,16,55,53,200,-53.30944061279297,,,
2018,12,4,16,55,53,204,-53.641319274902344,,,
2018,12,4,16,55,53,207,-53.91883850097656,,,
2018,12,4,16,55,53,211,-53.801536560058594,1048.0,9662.0,4294964396.0
2018,12,4,16,55,53,215,-53.498268127441406,,,
2018,12,4,16,55,53,219,-53.39241027832031,,,
2018,12,4,16,55,53,223,-53.730010986328125,,,
2018,12,4,16,55,53,227,-54.096221923828125,,,
2018,12,4,16,55,53,231,-54.01325225830078,1087.0,9682.0,4294964415.0
2018,12,4,16,55,53,235,-53.68995666503906,,,
2018,12,4,16,55,53,239,-53.58123779296875,,,
2018,12,4,16,55,53,243,-53.772926330566406,,,
2018,12,4,16,55,53,247,-54.10480499267578,,,
2018,12,4,16,55,53,250,-54.06761169433594,1009.0,9662.0,4294964484.0
2018,12,4,16,55,53,254,-53.755760192871094,,,
2018,12,4,16,55,53,258,-53.55548858642578,,,
2018,12,4,16,55,53,262,-53.755760192871094,,,
2018,12,4,16,55,53,266,-54.12483215332031,,,
2018,12,4,16,55,53,270,-54.15916442871094,1068.0,9623.0,4294964396.0
2018,12,4,16,55,53,274,-53.80439758300781,,,
2018,12,4,16,55,53,278,-53.58409881591797,,,
2018,12,4,16,55,53,282,-53.847312927246094,,,
2018,12,4,16,55,53,286,-54.33368682861328,,,
2018,12,4,16,55,53,290,-54.299354553222656,1009.0,9682.0,4294964454.0
2018,12,4,16,55,53,293,-54.0618896484375,,,
2018,12,4,16,55,53,297,-53.798675537109375,,,
2018,12,4,16,55,53,301,-53.88450622558594,,,
2018,12,4,16,55,53,305,-54.290771484375,,,
2018,12,4,16,55,53,309,-54.36515808105469,1029.0,9682.0,4294964415.0
2018,12,4,16,55,53,313,-54.04472351074219,,,
2018,12,4,16,55,53,317,-53.615570068359375,,,
2018,12,4,16,55,53,321,-53.455352783203125,,,
2018,12,4,16,55,53,325,-53.67565155029297,,,
2018,12,4,16,55,53,329,-53.77006530761719,970.0,9721.0,4294964484.0
2018,12,4,16,55,53,332,-53.67851257324219,,,
2018,12,4,16,55,53,336,-53.35807800292969,,,
2018,12,4,16,55,53,340,-52.86884307861328,,,
2018,12,4,16,55,53,344,-52.674293518066406,,,
2018,12,4,16,55,53,348,-52.268028259277344,1029.0,9662.0,4294964464.0
2018,12,4,16,55,53,352,-51.876068115234375,,,
2018,12,4,16,55,53,356,-51.375389099121094,,,
2018,12,4,16,55,53,360,-51.40113830566406,,,
2018,12,4,16,55,53,364,-51.624298095703125,,,
2018,12,4,16,55,53,368,-52.20508575439453,1029.0,9604.0,4294964454.0
2018,12,4,16,55,53,372,-52.276611328125,,,
2018,12,4,16,55,53,375,-51.91326141357422,,,
2018,12,4,16,55,53,379,-51.68437957763672,,,
2018,12,4,16,55,53,383,-52.033424377441406,,,
2018,12,4,16,55,53,387,-52.78587341308594,1107.0,9721.0,4294964454.0
2018,12,4,16,55,53,391,-53.25508117675781,,,
2018,12,4,16,55,53,395,-53.34663391113281,,,
2018,12,4,16,55,53,399,-53.55548858642578,,,
2018,12,4,16,55,53,403,-53.958892822265625,,,
2018,12,4,16,55,53,407,-54.27360534667969,970.0,9741.0,4294964503.0
2018,12,4,16,55,53,411,-54.393768310546875,,,
2018,12,4,16,55,53,415,-54.14772033691406,,,
2018,12,4,16,55,53,418,-54.03327941894531,,,
2018,12,4,16,55,53,422,-54.345130920410156,,,
2018,12,4,16,55,53,426,-54.739952087402344,1048.0,9662.0,4294964503.0
2018,12,4,16,55,53,430,-54.82292175292969,,,
2018,12,4,16,55,53,434,-54.46815490722656,,,
2018,12,4,16,55,53,438,-54.27074432373047,,,
2018,12,4,16,55,53,442,-54.51679229736328,,,
2018,12,4,16,55,53,446,-55.060386657714844,1048.0,9662.0,4294964464.0
2018,12,4,16,55,53,450,-55.0689697265625,,,
2018,12,4,16,55,53,454,-54.79145050048828,,,
2018,12,4,16,55,53,457,-54.462432861328125,,,
2018,12,4,16,55,53,461,-54.56829071044922,,,
2018,12,4,16,55,53,465,-54.963111877441406,1048.0,9721.0,4294964523.0
2018,12,4,16,55,53,469,-54.98313903808594,,,
2018,12,4,16,55,53,473,-54.396629333496094,,,
2018,12,4,16,55,53,477,-53.50971221923828,,,
2018,12,4,16,55,53,481,-52.150726318359375,,,
2018,12,4,16,55,53,485,-50.84037780761719,1029.0,9682.0,4294964582.0
2018,12,4,16,55,53,489,-48.51722717285156,,,
2018,12,4,16,55,53,493,-45.401573181152344,,,
2018,12,4,16,55,53,497,-42.377471923828125,,,
2018,12,4,16,55,53,500,-40.60649871826172,,,
2018,12,4,16,55,53,504,-41.97406768798828,1029.0,9721.0,4294964503.0
2018,12,4,16,55,53,508,-47.03807830810547,,,
2018,12,4,16,55,53,512,-52.5054931640625,,,
2018,12,4,16,55,53,516,-59.55791473388672,,,
2018,12,4,16,55,53,520,-66.741943359375,,,
2018,12,4,16,55,53,524,-70.48988342285156,970.0,9643.0,4294964543.0
2018,12,4,16,55,53,528,-69.87190246582031,,,
2018,12,4,16,55,53,532,-65.69194793701172,,,
2018,12,4,16,55,53,536,-62.14427947998047,,,
2018,12,4,16,55,53,540,-59.73529815673828,,,
2018,12,4,16,55,53,543,-56.81419372558594,1068.0,9584.0,4294964543.0
2018,12,4,16,55,53,547,-55.85289001464844,,,
2018,12,4,16,55,53,551,-55.46379089355469,,,
2018,12,4,16,55,53,555,-54.84294891357422,,,
2018,12,4,16,55,53,559,-54.56829071044922,,,
2018,12,4,16,55,53,563,-54.531097412109375,1048.0,9702.0,4294964484.0
2018,12,4,16,55,53,567,-54.70848083496094,,,
2018,12,4,16,55,53,571,-54.656982421875,,,
2018,12,4,16,55,53,575,-54.14772033691406,,,
2018,12,4,16,55,53,579,-53.801536560058594,,,
2018,12,4,16,55,53,582,-53.83586883544922,1048.0,9760.0,4294964562.0
2018,12,4,16,55,53,586,-54.09049987792969,,,
2018,12,4,16,55,53,590,-54.04186248779297,,,
2018,12,4,16,55,53,594,-53.63273620605469,,,
2018,12,4,16,55,53,598,-53.3294677734375,,,
2018,12,4,16,55,53,602,-53.42388153076172,989.0,9702.0,4294964415.0
2018,12,4,16,55,53,606,-53.76148223876953,,,
2018,12,4,16,55,53,610,-53.80725860595703,,,
2018,12,4,16,55,53,614,-53.41815948486328,,,
2018,12,4,16,55,53,618,-52.93464660644531,,,
2018,12,4,16,55,53,622,-53.046226501464844,1009.0,9682.0,4294964621.0
2018,12,4,16,55,53,625,-53.35807800292969,,,
2018,12,4,16,55,53,629,-53.31230163574219,,,
2018,12,4,16,55,53,633,-53.09772491455078,,,
2018,12,4,16,55,53,637,-53.017616271972656,,,
2018,12,4,16,55,53,641,-52.83164978027344,1009.0,9721.0,4294964337.0
2018,12,4,16,55,53,645,-53.10630798339844,,,
2018,12,4,16,55,53,649,-53.12061309814453,,,
2018,12,4,16,55,53,653,-52.817344665527344,,,
2018,12,4,16,55,53,657,-52.382469177246094,,,
2018,12,4,16,55,53,661,-52.33955383300781,1068.0,9682.0,4294964562.0
2018,12,4,16,55,53,665,-52.63710021972656,,,
2018,12,4,16,55,53,668,-52.57701873779297,,,
2018,12,4,16,55,53,672,-52.27088928222656,,,
2018,12,4,16,55,53,676,-51.876068115234375,,,
2018,12,4,16,55,53,680,-51.690101623535156,1087.0,9682.0,4294964503.0
2018,12,4,16,55,53,684,-51.967620849609375,,,
2018,12,4,16,55,53,688,-52.02770233154297,,,
2018,12,4,16,55,53,692,-51.735877990722656,,,
2018,12,4,16,55,53,696,-51.177978515625,,,
2018,12,4,16,55,53,700,-50.823211669921875,1048.0,9643.0,4294964601.0
2018,12,4,16,55,53,704,-51.18370056152344,,,
2018,12,4,16,55,53,707,-51.215171813964844,,,
2018,12,4,16,55,53,711,-50.96626281738281,,,
2018,12,4,16,55,53,715,-50.54283142089844,,,
2018,12,4,16,55,53,719,-50.23956298828125,1029.0,9770.0,4294964543.0
2018,12,4,16,55,53,723,-50.35686492919922,,,
2018,12,4,16,55,53,727,-50.614356994628906,,,
2018,12,4,16,55,53,731,-50.33683776855469,,,
2018,12,4,16,55,53,735,-50.03070831298828,,,
2018,12,4,16,55,53,739,-49.79896545410156,1048.0,9741.0,4294964562.0
2018,12,4,16,55,53,743,-49.91912841796875,,,
2018,12,4,16,55,53,747,-50.16803741455078,,,
2018,12,4,16,55,53,750,-50.070762634277344,,,
2018,12,4,16,55,53,754,-49.73888397216797,,,
2018,12,4,16,55,53,758,-49.4842529296875,1048.0,9741.0,4294964582.0
2018,12,4,16,55,53,762,-50.14801025390625,,,
2018,12,4,16,55,53,766,-50.228118896484375,,,
2018,12,4,16,55,53,770,-50.34828186035156,,,
2018,12,4,16,55,53,774,-50.00782012939453,,,
2018,12,4,16,55,53,778,-49.75318908691406,1029.0,9760.0,4294964543.0
2018,12,4,16,55,53,782,-49.904823303222656,,,
2018,12,4,16,55,53,786,-50.39405822753906,,,
2018,12,4,16,55,53,790,-50.51422119140625,,,
2018,12,4,16,55,53,793,-50.296783447265625,,,
2018,12,4,16,55,53,797,-50.01640319824219,1048.0,9760.0,4294964621.0
2018,12,4,16,55,53,801,-50.253868103027344,,,
2018,12,4,16,55,53,805,-50.78887939453125,,,
2018,12,4,16,55,53,809,-51.09214782714844,,,
2018,12,4,16,55,53,813,-51.04351043701172,,,
2018,12,4,16,55,53,817,-50.98915100097656,1009.0,9702.0,4294964601.0
2018,12,4,16,55,53,821,-51.22947692871094,,,
2018,12,4,16,55,53,825,-51.87034606933594,,,
2018,12,4,16,55,53,829,-52.51121520996094,,,
2018,12,4,16,55,53,832,-52.59132385253906,,,
2018,12,4,16,55,53,836,-52.50835418701172,1009.0,9760.0,4294964523.0
2018,12,4,16,55,53,840,-52.734375,,,
2018,12,4,16,55,53,844,-53.203582763671875,,,
2018,12,4,16,55,53,848,-53.503990173339844,,,
2018,12,4,16,55,53,852,-53.498268127441406,,,
2018,12,4,16,55,53,856,-53.318023681640625,931.0,9682.0,4294964543.0
2018,12,4,16,55,53,860,-53.229331970214844,,,
2018,12,4,16,55,53,864,-53.589820861816406,,,
2018,12,4,16,55,53,868,-53.847312927246094,,,
2018,12,4,16,55,53,872,-53.74431610107422,,,
2018,12,4,16,55,53,875,-53.366661071777344,989.0,9760.0,4294964543.0
2018,12,4,16,55,53,879,-53.18927764892578,,,
2018,12,4,16,55,53,883,-53.58695983886719,,,
2018,12,4,16,55,53,887,-53.96461486816406,,,
2018,12,4,16,55,53,891,-54.462432861328125,,,
2018,12,4,16,55,53,895,-53.97319793701172,989.0,9741.0,4294964601.0
2018,12,4,16,55,53,899,-53.76148223876953,,,
2018,12,4,16,55,53,903,-53.90167236328125,,,
2018,12,4,16,55,53,907,-54.13341522216797,,,
2018,12,4,16,55,53,911,-54.001808166503906,,,
2018,12,4,16,55,53,915,-53.612709045410156,989.0,9741.0,4294964660.0
2018,12,4,16,55,53,918,-53.37238311767578,,,
2018,12,4,16,55,53,922,-53.569793701171875,,,
2018,12,4,16,55,53,926,-53.772926330566406,,,
2018,12,4,16,55,53,930,-53.67279052734375,,,
2018,12,4,16,55,53,934,-53.39241027832031,1029.0,9829.0,4294964503.0
2018,12,4,16,55,53,938,-53.14064025878906,,,
2018,12,4,16,55,53,942,-53.26080322265625,,,
2018,12,4,16,55,53,946,-53.6041259765625,,,
2018,12,4,16,55,53,950,-53.60984802246094,,,
2018,12,4,16,55,53,954,-53.62415313720703,1029.0,9770.0,4294964680.0
2018,12,4,16,55,53,957,-53.37810516357422,,,
2018,12,4,16,55,53,961,-53.41815948486328,,,
2018,12,4,16,55,53,965,-53.681373596191406,,,
2018,12,4,16,55,53,969,-53.732872009277344,,,
2018,12,4,16,55,53,973,-53.42674255371094,970.0,9721.0,4294964699.0
2018,12,4,16,55,53,977,-53.18641662597656,,,
2018,12,4,16,55,53,981,-53.14922332763672,,,
2018,12,4,16,55,53,985,-53.466796875,,,
2018,12,4,16,55,53,989,-53.60984802246094,,,
2018,12,4,16,55,53,993,-53.33518981933594,989.0,9721.0,4294964641.0
2018,12,4,16,55,53,997,-52.997589111328125,,,
2018,12,4,16,55,54,0,-53.03764343261719,,,
2018,12,4,16,55,54,4,-53.46965789794922,,,
2018,12,4,16,55,54,8,-53.58123779296875,,,
2018,12,4,16,55,54,12,-53.37810516357422,989.0,9702.0,4294964660.0
2018,12,4,16,55,54,16,-53.16352844238281,,,
2018,12,4,16,55,54,20,-53.30085754394531,,,
2018,12,4,16,55,54,24,-53.498268127441406,,,
2018,12,4,16,55,54,28,-53.7872314453125,,,
2018,12,4,16,55,54,32,-53.592681884765625,1048.0,9721.0,4294964680.0
2018,12,4,16,55,54,36,-53.22074890136719,,,
2018,12,4,16,55,54,40,-53.18641662597656,,,
2018,12,4,16,55,54,43,-53.475379943847656,,,
2018,12,4,16,55,54,47,-53.76434326171875,,,
2018,12,4,16,55,54,51,-53.687095642089844,1009.0,9790.0,4294964778.0
2018,12,4,16,55,54,55,-53.28083038330078,,,
2018,12,4,16,55,54,59,-53.177833557128906,,,
2018,12,4,16,55,54,63,-53.51543426513672,,,
2018,12,4,16,55,54,67,-53.778648376464844,,,
2018,12,4,16,55,54,71,-53.73859405517578,989.0,9790.0,4294964699.0
2018,12,4,16,55,54,75,-53.32660675048828,,,
2018,12,4,16,55,54,79,-53.177833557128906,,,
2018,12,4,16,55,54,82,-53.69853973388672,,,
2018,12,4,16,55,54,86,-53.88164520263672,,,
2018,12,4,16,55,54,90,-53.775787353515625,1029.0,9829.0,4294964601.0
2018,12,4,16,55,54,94,-53.34949493408203,,,
2018,12,4,16,55,54,98,-53.16925048828125,,,
2018,12,4,16,55,54,102,-53.40385437011719,,,
2018,12,4,16,55,54,106,-53.62129211425781,,,
2018,12,4,16,55,54,110,-53.7872314453125,1048.0,9809.0,4294964739.0
2018,12,4,16,55,54,114,-53.44963073730469,,,
2018,12,4,16,55,54,118,-53.177833557128906,,,
2018,12,4,16,55,54,122,-53.35521697998047,,,
2018,12,4,16,55,54,125,-53.68995666503906,,,
2018,12,4,16,55,54,129,-53.63273620605469,1048.0,9702.0,4294964699.0
2018,12,4,16,55,54,133,-53.44963073730469,,,
2018,12,4,16,55,54,137,-53.22074890136719,,,
2018,12,4,16,55,54,141,-53.383827209472656,,,
2018,12,4,16,55,54,145,-53.48396301269531,,,
2018,12,4,16,55,54,149,-53.30944061279297,1009.0,9770.0,4294964543.0
2018,12,4,16,55,54,153,-53.26366424560547,,,
2018,12,4,16,55,54,157,-53.020477294921875,,,
2018,12,4,16,55,54,161,-53.07769775390625,,,
2018,12,4,16,55,54,165,-53.4210205078125,,,
2018,12,4,16,55,54,168,-53.49254608154297,,,
2018,12,4,16,55,54,172,-53.26652526855469,,,
2018,12,4,16,55,54,176,-52.75154113769531,,,
2018,12,4,16,55,54,180,-52.588462829589844,,,
2018,12,4,16,55,54,184,-53.03478240966797,,,
2018,12,4,16,55,54,188,-53.157806396484375,4294964523.0,872.0,9643.0
2018,12,4,16,55,54,192,-53.046226501464844,,,
2018,12,4,16,55,54,196,-52.45685577392578,,,
2018,12,4,16,55,54,200,-51.95045471191406,,,
2018,12,4,16,55,54,204,-51.56135559082031,,,
2018,12,4,16,55,54,207,-51.38111114501953,4294964503.0,911.0,9682.0
2018,12,4,16,55,54,211,-50.803184509277344,,,
2018,12,4,16,55,54,215,-50.574302673339844,,,
2018,12,4,16,55,54,219,-50.4913330078125,,,
2018,12,4,16,55,54,223,-50.83179473876953,,,
2018,12,4,16,55,54,227,-51.3153076171875,4294964562.0,833.0,9741.0
2018,12,4,16,55,54,231,-51.506996154785156,,,
2018,12,4,16,55,54,235,-51.177978515625,,,
2018,12,4,16,55,54,239,-51.169395446777344,,,
2018,12,4,16,55,54,243,-51.73301696777344,,,
2018,12,4,16,55,54,247,-52.43110656738281,4294964464.0,764.0,9564.0
2018,12,4,16,55,54,250,-52.89459228515625,,,
2018,12,4,16,55,54,254,-52.94322967529297,,,
2018,12,4,16,55,54,258,-52.96611785888672,,,
2018,12,4,16,55,54,262,-53.275108337402344,,,
2018,12,4,16,55,54,266,-53.63273620605469,4294964317.0,803.0,9584.0
2018,12,4,16,55,54,270,-53.71570587158203,,,
2018,12,4,16,55,54,274,-53.755760192871094,,,
2018,12,4,16,55,54,278,-54.053306579589844,,,
2018,12,4,16,55,54,282,-54.01611328125,,,
2018,12,4,16,55,54,286,-54.35371398925781,4294964396.0,852.0,9604.0
2018,12,4,16,55,54,290,-54.35657501220703,,,
2018,12,4,16,55,54,293,-54.08477783203125,,,
2018,12,4,16,55,54,297,-53.821563720703125,,,
2018,12,4,16,55,54,301,-53.821563720703125,,,
2018,12,4,16,55,54,305,-54.26502227783203,4294964317.0,911.0,9545.0
2018,12,4,16,55,54,309,-54.259300231933594,,,
2018,12,4,16,55,54,313,-53.97605895996094,,,
2018,12,4,16,55,54,317,-53.641319274902344,,,
2018,12,4,16,55,54,321,-53.78437042236328,,,
2018,12,4,16,55,54,325,-54.12483215332031,4294964278.0,872.0,9506.0
2018,12,4,16,55,54,329,-54.26216125488281,,,
2018,12,4,16,55,54,332,-53.778648376464844,,,
2018,12,4,16,55,54,336,-52.79731750488281,,,
2018,12,4,16,55,54,340,-51.7730712890625,,,
2018,12,4,16,55,54,344,-50.14801025390625,4294964278.0,852.0,9525.0
2018,12,4,16,55,54,348,-47.63603210449219,,,
2018,12,4,16,55,54,352,-44.52037811279297,,,
2018,12,4,16,55,54,356,-41.138648986816406,,,
2018,12,4,16,55,54,360,-39.84546661376953,,,
2018,12,4,16,55,54,364,-41.57066345214844,4294964278.0,852.0,9545.0
2018,12,4,16,55,54,368,-47.45292663574219,,,
2018,12,4,16,55,54,372,-52.93464660644531,,,
2018,12,4,16,55,54,375,-60.759544372558594,,,
2018,12,4,16,55,54,379,-67.5973892211914,,,
2018,12,4,16,55,54,383,-70.587158203125,4294964141.0,852.0,9584.0
2018,12,4,16,55,54,387,-68.98212432861328,,,
2018,12,4,16,55,54,391,-64.75353240966797,,,
2018,12,4,16,55,54,395,-61.56349182128906,,,
2018,12,4,16,55,54,399,-58.7310791015625,,,
2018,12,4,16,55,54,403,-56.05602264404297,4294964258.0,833.0,9702.0
2018,12,4,16,55,54,407,-55.58967590332031,,,
2018,12,4,16,55,54,411,-55.24635314941406,,,
2018,12,4,16,55,54,415,-54.739952087402344,,,
2018,12,4,16,55,54,418,-54.39949035644531,,,
2018,12,4,16,55,54,422,-54.42523956298828,4294964278.0,813.0,9604.0
2018,12,4,16,55,54,426,-54.63409423828125,,,
2018,12,4,16,55,54,430,-54.508209228515625,,,
2018,12,4,16,55,54,434,-53.95030975341797,,,
2018,12,4,16,55,54,438,-53.68995666503906,,,
2018,12,4,16,55,54,442,-53.69853973388672,4294964239.0,911.0,9604.0
2018,12,4,16,55,54,446,-53.85303497314453,,,
2018,12,4,16,55,54,450,-53.867340087890625,,,
2018,12,4,16,55,54,454,-53.56121063232422,,,
2018,12,4,16,55,54,457,-53.338050842285156,,,
2018,12,4,16,55,54,461,-53.41529846191406,4294964484.0,911.0,9662.0
2018,12,4,16,55,54,465,-53.79009246826172,,,
2018,12,4,16,55,54,469,-53.890228271484375,,,
2018,12,4,16,55,54,473,-53.466796875,,,
2018,12,4,16,55,54,477,-53.069114685058594,,,
2018,12,4,16,55,54,481,-52.994728088378906,4294964376.0,931.0,9682.0
2018,12,4,16,55,54,485,-53.275108337402344,,,
2018,12,4,16,55,54,489,-53.297996520996094,,,
2018,12,4,16,55,54,493,-52.87456512451172,,,
2018,12,4,16,55,54,497,-52.474021911621094,,,
2018,12,4,16,55,54,500,-52.496910095214844,4294964376.0,803.0,9741.0
2018,12,4,16,55,54,504,-52.680015563964844,,,
2018,12,4,16,55,54,508,-52.96039581298828,,,
2018,12,4,16,55,54,512,-52.539825439453125,,,
2018,12,4,16,55,54,516,-52.23369598388672,,,
2018,12,4,16,55,54,520,-52.033424377441406,4294964258.0,950.0,9623.0
2018,12,4,16,55,54,524,-52.24800109863281,,,
2018,12,4,16,55,54,528,-52.405357360839844,,,
2018,12,4,16,55,54,532,-52.262306213378906,,,
2018,12,4,16,55,54,536,-51.876068115234375,,,
2018,12,4,16,55,54,540,-51.6815185546875,4294964396.0,1029.0,9623.0
2018,12,4,16,55,54,543,-51.878929138183594,,,
2018,12,4,16,55,54,547,-51.97334289550781,,,
2018,12,4,16,55,54,551,-51.70726776123047,,,
2018,12,4,16,55,54,555,-51.29528045654297,,,
2018,12,4,16,55,54,559,-51.08356475830078,4294964435.0,1127.0,9662.0
2018,12,4,16,55,54,563,-51.329612731933594,,,
2018,12,4,16,55,54,567,-51.40113830566406,,,
2018,12,4,16,55,54,571,-51.072120666503906,,,
2018,12,4,16,55,54,575,-50.63438415527344,,,
2018,12,4,16,55,54,579,-50.262451171875,4294964435.0,1166.0,9760.0
2018,12,4,16,55,54,582,-50.35972595214844,,,
2018,12,4,16,55,54,586,-50.502777099609375,,,
2018,12,4,16,55,54,590,-50.33397674560547,,,
2018,12,4,16,55,54,594,-49.99065399169922,,,
2018,12,4,16,55,54,598,-49.87907409667969,4294964435.0,1234.0,9721.0
2018,12,4,16,55,54,602,-49.91626739501953,,,
2018,12,4,16,55,54,606,-50.19664764404297,,,
2018,12,4,16,55,54,610,-50.18806457519531,,,
2018,12,4,16,55,54,614,-49.87335205078125,,,
2018,12,4,16,55,54,618,-49.73602294921875,4294964503.0,1146.0,9770.0
2018,12,4,16,55,54,622,-49.907684326171875,,,
2018,12,4,16,55,54,625,-50.208091735839844,,,
2018,12,4,16,55,54,629,-50.208091735839844,,,
2018,12,4,16,55,54,633,-49.98207092285156,,,
2018,12,4,16,55,54,637,-49.841880798339844,4294964543.0,1029.0,9809.0
2018,12,4,16,55,54,641,-49.89337921142578,,,
2018,12,4,16,55,54,645,-50.24528503417969,,,
2018,12,4,16,55,54,649,-50.44269561767578,,,
2018,12,4,16,55,54,653,-50.299644470214844,,,
2018,12,4,16,55,54,657,-50.065040588378906,4294964621.0,931.0,9721.0
2018,12,4,16,55,54,661,-50.1251220703125,,,
2018,12,4,16,55,54,665,-50.568580627441406,,,
2018,12,4,16,55,54,668,-50.889015197753906,,,
2018,12,4,16,55,54,672,-50.90045928955078,,,
2018,12,4,16,55,54,676,-50.800323486328125,4294964601.0,950.0,9702.0
2018,12,4,16,55,54,680,-51.04637145996094,,,
2018,12,4,16,55,54,684,-51.60999298095703,,,
2018,12,4,16,55,54,688,-51.993370056152344,,,
2018,12,4,16,55,54,692,-52.245140075683594,,,
2018,12,4,16,55,54,696,-52.22511291503906,4294964621.0,911.0,9682.0
2018,12,4,16,55,54,700,-52.448272705078125,,,
2018,12,4,16,55,54,704,-52.931785583496094,,,
2018,12,4,16,55,54,707,-53.35235595703125,,,
2018,12,4,16,55,54,711,-53.40385437011719,,,
2018,12,4,16,55,54,715,-53.1005859375,4294964660.0,970.0,9809.0
2018,12,4,16,55,54,719,-53.092002868652344,,,
2018,12,4,16,55,54,723,-53.40385437011719,,,
2018,12,4,16,55,54,727,-53.90453338623047,,,
2018,12,4,16,55,54,731,-53.752899169921875,,,
2018,12,4,16,55,54,735,-53.30944061279297,4294964523.0,1068.0,9741.0
2018,12,4,16,55,54,739,-53.109169006347656,,,
2018,12,4,16,55,54,743,-53.375244140625,,,
2018,12,4,16,55,54,747,-53.67851257324219,,,
2018,12,4,16,55,54,750,-53.72428894042969,,,
2018,12,4,16,55,54,754,-53.360939025878906,4294964503.0,1146.0,9623.0
2018,12,4,16,55,54,758,-53.132057189941406,,,
2018,12,4,16,55,54,762,-53.25508117675781,,,
2018,12,4,16,55,54,766,-53.49254608154297,,,
2018,12,4,16,55,54,770,-53.635597229003906,,,
2018,12,4,16,55,54,774,-53.19499969482422,4294964523.0,1205.0,9702.0
2018,12,4,16,55,54,778,-53.03478240966797,,,
2018,12,4,16,55,54,782,-53.160667419433594,,,
2018,12,4,16,55,54,786,-53.30944061279297,,,
2018,12,4,16,55,54,790,-53.132057189941406,,,
2018,12,4,16,55,54,793,-52.91175842285156,4294964435.0,1274.0,9702.0
2018,12,4,16,55,54,797,-52.60276794433594,,,
2018,12,4,16,55,54,801,-52.71720886230469,,,
2018,12,4,16,55,54,805,-53.14922332763672,,,
2018,12,4,16,55,54,809,-53.2379150390625,,,
2018,12,4,16,55,54,813,-53.046226501464844,4294964464.0,1215.0,9643.0
2018,12,4,16,55,54,817,-52.791595458984375,,,
2018,12,4,16,55,54,821,-52.794456481933594,,,
2018,12,4,16,55,54,825,-53.05194854736328,,,
2018,12,4,16,55,54,829,-53.200721740722656,,,
2018,12,4,16,55,54,832,-52.93750762939453,4294964435.0,1254.0,9506.0
2018,12,4,16,55,54,836,-52.651405334472656,,,
2018,12,4,16,55,54,840,-52.70862579345703,,,
2018,12,4,16,55,54,844,-53.03478240966797,,,
2018,12,4,16,55,54,848,-53.192138671875,,,
2018,12,4,16,55,54,852,-53.203582763671875,4294964523.0,1274.0,9682.0
2018,12,4,16,55,54,856,-52.748680114746094,,,
2018,12,4,16,55,54,860,-52.88887023925781,,,
2018,12,4,16,55,54,864,-53.03764343261719,,,
2018,12,4,16,55,54,868,-53.340911865234375,,,
2018,12,4,16,55,54,872,-53.272247314453125,4294964435.0,1166.0,9741.0
2018,12,4,16,55,54,875,-53.07769775390625,,,
2018,12,4,16,55,54,879,-53.009033203125,,,
2018,12,4,16,55,54,883,-53.340911865234375,,,
2018,12,4,16,55,54,887,-53.638458251953125,,,
2018,12,4,16,55,54,891,-53.455352783203125,4294964543.0,1107.0,9760.0
2018,12,4,16,55,54,895,-53.109169006347656,,,
2018,12,4,16,55,54,899,-53.02619934082031,,,
2018,12,4,16,55,54,903,-53.38096618652344,,,
2018,12,4,16,55,54,907,-53.618431091308594,,,
2018,12,4,16,55,54,911,-53.53832244873047,4294964415.0,989.0,9702.0
2018,12,4,16,55,54,915,-53.24077606201172,,,
2018,12,4,16,55,54,918,-52.951812744140625,,,
2018,12,4,16,55,54,922,-53.3294677734375,,,
2018,12,4,16,55,54,926,-53.569793701171875,,,
2018,12,4,16,55,54,930,-53.56121063232422,4294964415.0,970.0,9604.0
2018,12,4,16,55,54,934,-53.22074890136719,,,
2018,12,4,16,55,54,938,-53.023338317871094,,,
2018,12,4,16,55,54,942,-53.177833557128906,,,
2018,12,4,16,55,54,946,-53.406715393066406,,,
2018,12,4,16,55,54,950,-53.5125732421875,4294964356.0,989.0,9702.0
2018,12,4,16,55,54,954,-53.109169006347656,,,
2018,12,4,16,55,54,957,-52.89173126220703,,,
2018,12,4,16,55,54,961,-53.069114685058594,,,
2018,12,4,16,55,54,965,-53.41815948486328,,,
2018,12,4,16,55,54,969,-53.47251892089844,4294964396.0,1029.0,9604.0
2018,12,4,16,55,54,973,-53.16925048828125,,,
2018,12,4,16,55,54,977,-52.72865295410156,,,
2018,12,4,16,55,54,981,-52.9632568359375,,,
2018,12,4,16,55,54,985,-53.315162658691406,,,
2018,12,4,16,55,54,989,-53.40385437011719,4294964337.0,1068.0,9545.0
2018,12,4,16,55,54,993,-53.154945373535156,,,
2018,12,4,16,55,54,997,-52.80876159667969,,,
2018,12,4,16,55,55,0,-52.91461944580078,,,
2018,12,4,16,55,55,4,-53.28083038330078,,,
2018,12,4,16,55,55,8,-53.30371856689453,4294964396.0,950.0,9604.0
2018,12,4,16,55,55,12,-53.06053161621094,,,
2018,12,4,16,55,55,16,-52.677154541015625,,,
2018,12,4,16,55,55,20,-52.46257781982422,,,
2018,12,4,16,55,55,24,-52.817344665527344,,,
2018,12,4,16,55,55,28,-52.883148193359375,4294964464.0,1048.0,9604.0
2018,12,4,16,55,55,32,-52.61707305908203,,,
2018,12,4,16,55,55,36,-52.30236053466797,,,
2018,12,4,16,55,55,40,-52.2308349609375,,,
2018,12,4,16,55,55,43,-52.11639404296875,,,
2018,12,4,16,55,55,47,-51.70440673828125,4294964415.0,1029.0,9506.0
2018,12,4,16,55,55,51,-50.8575439453125,,,
2018,12,4,16,55,55,55,-50.00495910644531,,,
2018,12,4,16,55,55,59,-50.05073547363281,,,
2018,12,4,16,55,55,63,-50.31394958496094,,,
2018,12,4,16,55,55,67,-50.620079040527344,4294964435.0,1146.0,9564.0
2018,12,4,16,55,55,71,-50.6744384765625,,,
2018,12,4,16,55,55,75,-50.55713653564453,,,
2018,12,4,16,55,55,79,-50.502777099609375,,,
2018,12,4,16,55,55,82,-50.96912384033203,,,
2018,12,4,16,55,55,86,-51.58424377441406,4294964415.0,1205.0,9682.0
2018,12,4,16,55,55,90,-51.79309844970703,,,
2018,12,4,16,55,55,94,-51.910400390625,,,
2018,12,4,16,55,55,98,-52.07061767578125,,,
2018,12,4,16,55,55,102,-52.428245544433594,,,
2018,12,4,16,55,55,106,-52.745819091796875,4294964415.0,1166.0,9623.0
2018,12,4,16,55,55,110,-52.565574645996094,,,
2018,12,4,16,55,55,114,-52.52265930175781,,,
2018,12,4,16,55,55,118,-52.265167236328125,,,
2018,12,4,16,55,55,122,-52.57987976074219,,,
2018,12,4,16,55,55,125,-53.07769775390625,4294964415.0,1234.0,9623.0
2018,12,4,16,55,55,129,-53.063392639160156,,,
2018,12,4,16,55,55,133,-52.70862579345703,,,
2018,12,4,16,55,55,137,-52.605628967285156,,,
2018,12,4,16,55,55,141,-52.817344665527344,,,
2018,12,4,16,55,55,145,-53.27796936035156,4294964484.0,1215.0,9682.0
2018,12,4,16,55,55,149,-53.37238311767578,,,
2018,12,4,16,55,55,153,-53.112030029296875,,,
2018,12,4,16,55,55,157,-52.85453796386719,,,
2018,12,4,16,55,55,161,-52.880287170410156,,,
2018,12,4,16,55,55,165,-53.14922332763672,,,
2018,12,4,16,55,55,168,-53.30085754394531,,,
2018,12,4,16,55,55,172,-53.14064025878906,,,
2018,12,4,16,55,55,176,-52.54840850830078,,,
2018,12,4,16,55,55,180,-52.0477294921875,,,
2018,12,4,16,55,55,184,-51.13506317138672,,,
2018,12,4,16,55,55,188,-49.93915557861328,,,
2018,12,4,16,55,55,192,-47.71900177001953,,,
2018,12,4,16,55,55,196,-45.284271240234375,,,
2018,12,4,16,55,55,200,-42.32597351074219,,,
2018,12,4,16,55,55,204,-40.912628173828125,9702.0,4294964376.0,1215.0
2018,12,4,16,55,55,207,-43.662071228027344,,,
2018,12,4,16,55,55,211,-47.504425048828125,,,
2018,12,4,16,55,55,215,-52.15644836425781,,,
2018,12,4,16,55,55,219,-58.61091613769531,,,
2018,12,4,16,55,55,223,-65.19412994384766,9466.0,4294964454.0,1215.0
2018,12,4,16,55,55,227,-67.45433807373047,,,
2018,12,4,16,55,55,231,-67.14820861816406,,,
2018,12,4,16,55,55,235,-65.05966186523438,,,
2018,12,4,16,55,55,239,-61.715126037597656,,,
2018,12,4,16,55,55,243,-59.53788757324219,9604.0,4294964317.0,1205.0
2018,12,4,16,55,55,247,-57.47222900390625,,,
2018,12,4,16,55,55,250,-55.129051208496094,,,
2018,12,4,16,55,55,254,-54.259300231933594,,,
2018,12,4,16,55,55,258,-53.95317077636719,,,
2018,12,4,16,55,55,262,-53.99608612060547,9662.0,4294964356.0,1274.0
2018,12,4,16,55,55,266,-54.09049987792969,,,
2018,12,4,16,55,55,270,-53.81584167480469,,,
2018,12,4,16,55,55,274,-53.320884704589844,,,
2018,12,4,16,55,55,278,-52.857398986816406,,,
2018,12,4,16,55,55,282,-52.93464660644531,9662.0,4294964337.0,1313.0
2018,12,4,16,55,55,286,-53.14922332763672,,,
2018,12,4,16,55,55,290,-53.05194854736328,,,
2018,12,4,16,55,55,293,-52.68287658691406,,,
2018,12,4,16,55,55,297,-52.193641662597656,,,
2018,12,4,16,55,55,301,-52.448272705078125,9662.0,4294964435.0,1274.0
2018,12,4,16,55,55,305,-52.722930908203125,,,
2018,12,4,16,55,55,309,-52.6885986328125,,,
2018,12,4,16,55,55,313,-52.31666564941406,,,
2018,12,4,16,55,55,317,-52.036285400390625,,,
2018,12,4,16,55,55,321,-52.1392822265625,9604.0,4294964278.0,1234.0
2018,12,4,16,55,55,325,-52.428245544433594,,,
2018,12,4,16,55,55,329,-52.29377746582031,,,
2018,12,4,16,55,55,332,-51.918983459472656,,,
2018,12,4,16,55,55,336,-51.56707763671875,,,
2018,12,4,16,55,55,340,-51.63288116455078,9447.0,4294964356.0,1274.0
2018,12,4,16,55,55,344,-51.91612243652344,,,
2018,12,4,16,55,55,348,-51.93614959716797,,,
2018,12,4,16,55,55,352,-51.56993865966797,,,
2018,12,4,16,55,55,356,-51.15222930908203,,,
2018,12,4,16,55,55,360,-51.03492736816406,9486.0,4294964317.0,1332.0
2018,12,4,16,55,55,364,-51.29241943359375,,,
2018,12,4,16,55,55,368,-51.49269104003906,,,
2018,12,4,16,55,55,372,-50.983428955078125,,,
2018,12,4,16,55,55,375,-50.54283142089844,,,
2018,12,4,16,55,55,379,-50.436973571777344,9486.0,4294964454.0,1352.0
2018,12,4,16,55,55,383,-50.76026916503906,,,
2018,12,4,16,55,55,387,-50.76313018798828,,,
2018,12,4,16,55,55,391,-50.45127868652344,,,
2018,12,4,16,55,55,395,-50.09651184082031,,,
2018,12,4,16,55,55,399,-49.87049102783203,9506.0,4294964415.0,1352.0
2018,12,4,16,55,55,403,-50.090789794921875,,,
2018,12,4,16,55,55,407,-50.248146057128906,,,
2018,12,4,16,55,55,411,-50.01354217529297,,,
2018,12,4,16,55,55,415,-49.653053283691406,,,
2018,12,4,16,55,55,418,-49.36408996582031,9702.0,4294964484.0,1293.0
2018,12,4,16,55,55,422,-49.51000213623047,,,
2018,12,4,16,55,55,426,-49.447059631347656,,,
2018,12,4,16,55,55,430,-48.79188537597656,,,
2018,12,4,16,55,55,434,-48.49433898925781,,,
2018,12,4,16,55,55,438,-48.33412170410156,9682.0,4294964484.0,1313.0
2018,12,4,16,55,55,442,-48.63166809082031,,,
2018,12,4,16,55,55,446,-48.90632629394531,,,
2018,12,4,16,55,55,450,-48.80046844482422,,,
2018,12,4,16,55,55,454,-48.33984375,,,
2018,12,4,16,55,55,457,-48.25115203857422,9604.0,4294964435.0,1352.0
2018,12,4,16,55,55,461,-48.51722717285156,,,
2018,12,4,16,55,55,465,-48.98643493652344,,,
2018,12,4,16,55,55,469,-49.09229278564453,,,
2018,12,4,16,55,55,473,-48.82335662841797,,,
2018,12,4,16,55,55,477,-48.56586456298828,9623.0,4294964523.0,1391.0
2018,12,4,16,55,55,481,-48.82621765136719,,,
2018,12,4,16,55,55,485,-49.25823211669922,,,
2018,12,4,16,55,55,489,-49.590110778808594,,,
2018,12,4,16,55,55,493,-49.23820495605469,,,
2018,12,4,16,55,55,497,-49.04937744140625,9702.0,4294964601.0,1411.0
2018,12,4,16,55,55,500,-49.28112030029297,,,
2018,12,4,16,55,55,504,-49.790382385253906,,,
2018,12,4,16,55,55,508,-50.045013427734375,,,
2018,12,4,16,55,55,512,-49.92485046386719,,,
2018,12,4,16,55,55,516,-49.796104431152344,9702.0,4294964641.0,1430.0
2018,12,4,16,55,55,520,-50.047874450683594,,,
2018,12,4,16,55,55,524,-50.76026916503906,,,
2018,12,4,16,55,55,528,-51.209449768066406,,,
2018,12,4,16,55,55,532,-51.258087158203125,,,
2018,12,4,16,55,55,536,-51.123619079589844,9623.0,4294964601.0,1391.0
2018,12,4,16,55,55,540,-51.398277282714844,,,
2018,12,4,16,55,55,543,-51.98478698730469,,,
2018,12,4,16,55,55,547,-52.55126953125,,,
2018,12,4,16,55,55,551,-52.34241485595703,,,
2018,12,4,16,55,55,555,-52.39391326904297,9643.0,4294964739.0,1372.0
2018,12,4,16,55,55,559,-52.216529846191406,,,
2018,12,4,16,55,55,563,-52.72865295410156,,,
2018,12,4,16,55,55,567,-53.14350128173828,,,
2018,12,4,16,55,55,571,-52.96039581298828,,,
2018,12,4,16,55,55,575,-52.51121520996094,9790.0,4294964797.0,1352.0
2018,12,4,16,55,55,579,-52.514076232910156,,,
2018,12,4,16,55,55,582,-52.926063537597656,,,
2018,12,4,16,55,55,586,-53.16925048828125,,,
2018,12,4,16,55,55,590,-53.05194854736328,,,
2018,12,4,16,55,55,594,-52.69145965576172,9741.0,4294964837.0,1332.0
2018,12,4,16,55,55,598,-52.428245544433594,,,
2018,12,4,16,55,55,602,-52.582740783691406,,,
2018,12,4,16,55,55,606,-52.994728088378906,,,
2018,12,4,16,55,55,610,-52.89173126220703,,,
2018,12,4,16,55,55,614,-52.4139404296875,9721.0,4294964856.0,1274.0
2018,12,4,16,55,55,618,-52.29949951171875,,,
2018,12,4,16,55,55,622,-52.451133728027344,,,
2018,12,4,16,55,55,625,-52.791595458984375,,,
2018,12,4,16,55,55,629,-52.78587341308594,,,
2018,12,4,16,55,55,633,-52.16789245605469,9770.0,4294964837.0,1254.0
2018,12,4,16,55,55,637,-51.964759826660156,,,
2018,12,4,16,55,55,641,-52.288055419921875,,,
2018,12,4,16,55,55,645,-52.63996124267578,,,
2018,12,4,16,55,55,649,-52.60276794433594,,,
2018,12,4,16,55,55,653,-52.31952667236328,9741.0,4294964984.0,1274.0
2018,12,4,16,55,55,657,-51.95903778076172,,,
2018,12,4,16,55,55,661,-52.11639404296875,,,
2018,12,4,16,55,55,665,-52.52552032470703,,,
2018,12,4,16,55,55,668,-52.654266357421875,,,
2018,12,4,16,55,55,672,-52.32810974121094,9790.0,4294964856.0,1234.0
2018,12,4,16,55,55,676,-51.964759826660156,,,
2018,12,4,16,55,55,680,-51.91326141357422,,,
2018,12,4,16,55,55,684,-52.883148193359375,,,
2018,12,4,16,55,55,688,-53.137779235839844,,,
2018,12,4,16,55,55,692,-52.720069885253906,9790.0,4294964984.0,1254.0
2018,12,4,16,55,55,696,-52.359580993652344,,,
2018,12,4,16,55,55,700,-52.29663848876953,,,
2018,12,4,16,55,55,704,-52.883148193359375,,,
2018,12,4,16,55,55,707,-53.160667419433594,,,
2018,12,4,16,55,55,711,-52.92320251464844,9829.0,4294964886.0,1254.0
2018,12,4,16,55,55,715,-52.542686462402344,,,
2018,12,4,16,55,55,719,-52.52552032470703,,,
2018,12,4,16,55,55,723,-52.908897399902344,,,
2018,12,4,16,55,55,727,-53.19786071777344,,,
2018,12,4,16,55,55,731,-52.96611785888672,9790.0,4294964817.0,1372.0
2018,12,4,16,55,55,735,-52.451133728027344,,,
2018,12,4,16,55,55,739,-52.43110656738281,,,
2018,12,4,16,55,55,743,-52.80590057373047,,,
2018,12,4,16,55,55,747,-53.20930480957031,,,
2018,12,4,16,55,55,750,-53.23505401611328,9721.0,4294964817.0,1430.0
2018,12,4,16,55,55,754,-52.68287658691406,,,
2018,12,4,16,55,55,758,-52.45399475097656,,,
2018,12,4,16,55,55,762,-52.765846252441406,,,
2018,12,4,16,55,55,766,-53.25794219970703,,,
2018,12,4,16,55,55,770,-53.32374572753906,9721.0,4294964817.0,1411.0
2018,12,4,16,55,55,774,-52.90031433105469,,,
2018,12,4,16,55,55,778,-52.63710021972656,,,
2018,12,4,16,55,55,782,-52.8717041015625,,,
2018,12,4,16,55,55,786,-53.246498107910156,,,
2018,12,4,16,55,55,790,-53.32660675048828,9702.0,4294964778.0,1411.0
2018,12,4,16,55,55,793,-52.91175842285156,,,
2018,12,4,16,55,55,797,-52.62565612792969,,,
2018,12,4,16,55,55,801,-52.8717041015625,,,
2018,12,4,16,55,55,805,-53.360939025878906,,,
2018,12,4,16,55,55,809,-53.28369140625,9849.0,4294964778.0,1332.0
2018,12,4,16,55,55,813,-52.98614501953125,,,
2018,12,4,16,55,55,817,-52.64854431152344,,,
2018,12,4,16,55,55,821,-52.76012420654297,,,
2018,12,4,16,55,55,825,-53.15208435058594,,,
2018,12,4,16,55,55,829,-53.0548095703125,9662.0,4294964817.0,1332.0
2018,12,4,16,55,55,832,-52.697181701660156,,,
2018,12,4,16,55,55,836,-52.239418029785156,,,
2018,12,4,16,55,55,840,-52.20222473144531,,,
2018,12,4,16,55,55,844,-52.77442932128906,,,
2018,12,4,16,55,55,848,-52.95753479003906,9770.0,4294964758.0,1254.0
2018,12,4,16,55,55,852,-52.25086212158203,,,
2018,12,4,16,55,55,856,-51.392555236816406,,,
2018,12,4,16,55,55,860,-50.688743591308594,,,
2018,12,4,16,55,55,864,-50.751686096191406,,,
2018,12,4,16,55,55,868,-50.79174041748047,9868.0,4294964856.0,1274.0
2018,12,4,16,55,55,872,-50.66871643066406,,,
2018,12,4,16,55,55,875,-50.322532653808594,,,
2018,12,4,16,55,55,879,-50.434112548828125,,,
2018,12,4,16,55,55,883,-50.98915100097656,,,
2018,12,4,16,55,55,887,-51.27525329589844,9809.0,4294964905.0,1352.0
2018,12,4,16,55,55,891,-51.054954528808594,,,
2018,12,4,16,55,55,895,-50.871849060058594,,,
2018,12,4,16,55,55,899,-51.10645294189453,,,
2018,12,4,16,55,55,903,-52.11925506591797,,,
2018,12,4,16,55,55,907,-52.89173126220703,9790.0,4294964964.0,1293.0
2018,12,4,16,55,55,911,-52.96611785888672,,,
2018,12,4,16,55,55,915,-52.67143249511719,,,
2018,12,4,16,55,55,918,-52.50835418701172,,,
2018,12,4,16,55,55,922,-53.086280822753906,,,
2018,12,4,16,55,55,926,-53.546905517578125,9790.0,4294964886.0,1234.0
2018,12,4,16,55,55,930,-53.40385437011719,,,
2018,12,4,16,55,55,934,-53.07197570800781,,,
2018,12,4,16,55,55,938,-52.98614501953125,,,
2018,12,4,16,55,55,942,-53.6956787109375,,,
2018,12,4,16,55,55,946,-54.107666015625,9790.0,4294964856.0,1185.0
2018,12,4,16,55,55,950,-53.94744873046875,,,
2018,12,4,16,55,55,954,-53.51829528808594,,,
2018,12,4,16,55,55,957,-53.14350128173828,,,
2018,12,4,16,55,55,961,-53.455352783203125,,,
2018,12,4,16,55,55,965,-53.887367248535156,9829.0,4294964944.0,1166.0
2018,12,4,16,55,55,969,-53.936004638671875,,,
2018,12,4,16,55,55,973,-53.458213806152344,,,
2018,12,4,16,55,55,977,-53.24363708496094,,,
2018,12,4,16,55,55,981,-53.32374572753906,,,
2018,12,4,16,55,55,985,-53.592681884765625,9809.0,4294964905.0,1215.0
2018,12,4,16,55,55,989,-53.137779235839844,,,
2018,12,4,16,55,55,993,-51.40399932861328,,,
2018,12,4,16,55,55,997,-49.79896545410156,,,
2018,12,4,16,55,56,0,-47.78766632080078,,,
2018,12,4,16,55,56,4,-45.867919921875,9809.0,4294964925.0,1254.0
2018,12,4,16,55,56,8,-43.26438903808594,,,
2018,12,4,16,55,56,12,-40.798187255859375,,,
2018,12,4,16,55,56,16,-41.748046875,,,
2018,12,4,16,55,56,20,-45.787811279296875,,,
2018,12,4,16,55,56,24,-51.06639862060547,9760.0,4294964797.0,1254.0
2018,12,4,16,55,56,28,-57.50083923339844,,,
2018,12,4,16,55,56,32,-63.96961212158203,,,
2018,12,4,16,55,56,36,-66.4529800415039,,,
2018,12,4,16,55,56,40,-66.91932678222656,,,
2018,12,4,16,55,56,43,-65.16838073730469,9721.0,4294964797.0,1254.0
2018,12,4,16,55,56,47,-62.255859375,,,
2018,12,4,16,55,56,51,-59.62944030761719,,,
2018,12,4,16,55,56,55,-56.94580078125,,,
2018,12,4,16,55,56,59,-54.39949035644531,,,
2018,12,4,16,55,56,63,-54.213523864746094,9790.0,4294964866.0,1293.0
2018,12,4,16,55,56,67,-54.31079864501953,,,
2018,12,4,16,55,56,71,-53.9703369140625,,,
2018,12,4,16,55,56,75,-53.24363708496094,,,
2018,12,4,16,55,56,79,-52.814483642578125,,,
2018,12,4,16,55,56,82,-53.01189422607422,9741.0,4294964778.0,1430.0
2018,12,4,16,55,56,86,-53.22074890136719,,,
2018,12,4,16,55,56,90,-53.02619934082031,,,
2018,12,4,16,55,56,94,-52.52552032470703,,,
2018,12,4,16,55,56,98,-52.107810974121094,,,
2018,12,4,16,55,56,102,-52.41966247558594,9741.0,4294964866.0,1293.0
2018,12,4,16,55,56,106,-52.82306671142578,,,
2018,12,4,16,55,56,110,-52.66857147216797,,,
2018,12,4,16,55,56,114,-52.22797393798828,,,
2018,12,4,16,55,56,118,-51.89323425292969,,,
2018,12,4,16,55,56,122,-52.09636688232422,9770.0,4294964739.0,1146.0
2018,12,4,16,55,56,125,-52.53124237060547,,,
2018,12,4,16,55,56,129,-52.445411682128906,,,
2018,12,4,16,55,56,133,-51.59282684326172,,,
2018,12,4,16,55,56,137,-51.4068603515625,,,
2018,12,4,16,55,56,141,-51.512718200683594,9643.0,4294964758.0,1234.0
2018,12,4,16,55,56,145,-51.878929138183594,,,
2018,12,4,16,55,56,149,-51.86176300048828,,,
2018,12,4,16,55,56,153,-51.34105682373047,,,
2018,12,4,16,55,56,157,-50.871849060058594,,,
2018,12,4,16,55,56,161,-51.095008850097656,9760.0,4294964621.0,1274.0
2018,12,4,16,55,56,165,-51.555633544921875,,,
2018,12,4,16,55,56,168,-51.49269104003906,,,
2018,12,4,16,55,56,172,-51.049232482910156,,,
2018,12,4,16,55,56,176,-50.628662109375,,,
2018,12,4,16,55,56,180,-50.56571960449219,,,
2018,12,4,16,55,56,184,-50.98915100097656,,,
2018,12,4,16,55,56,188,-50.95481872558594,,,
2018,12,4,16,55,56,192,-50.571441650390625,,,
2018,12,4,16,55,56,196,-49.76463317871094,,,
2018,12,4,16,55,56,200,-49.452781677246094,1293.0,9760.0,4294964758.0
2018,12,4,16,55,56,204,-49.907684326171875,,,
2018,12,4,16,55,56,207,-49.97062683105469,,,
2018,12,4,16,55,56,211,-49.681663513183594,,,
2018,12,4,16,55,56,215,-49.163818359375,,,
2018,12,4,16,55,56,219,-48.989295959472656,1234.0,9868.0,4294964778.0
2018,12,4,16,55,56,223,-49.286842346191406,,,
2018,12,4,16,55,56,227,-49.40986633300781,,,
2018,12,4,16,55,56,231,-49.13520812988281,,,
2018,12,4,16,55,56,235,-48.57444763183594,,,
2018,12,4,16,55,56,239,-48.445701599121094,1205.0,9741.0,4294964739.0
2018,12,4,16,55,56,243,-48.760414123535156,,,
2018,12,4,16,55,56,247,-49.07512664794922,,,
2018,12,4,16,55,56,250,-48.91490936279297,,,
2018,12,4,16,55,56,254,-48.374176025390625,,,
2018,12,4,16,55,56,258,-48.20823669433594,1205.0,9662.0,4294964758.0
2018,12,4,16,55,56,262,-48.374176025390625,,,
2018,12,4,16,55,56,266,-48.79188537597656,,,
2018,12,4,16,55,56,270,-48.7518310546875,,,
2018,12,4,16,55,56,274,-48.399925231933594,,,
2018,12,4,16,55,56,278,-48.25115203857422,1274.0,9770.0,4294964778.0
2018,12,4,16,55,56,282,-48.56586456298828,,,
2018,12,4,16,55,56,286,-49.04651641845703,,,
2018,12,4,16,55,56,290,-48.99787902832031,,,
2018,12,4,16,55,56,293,-48.648834228515625,,,
2018,12,4,16,55,56,297,-48.417091369628906,1254.0,9741.0,4294964739.0
2018,12,4,16,55,56,301,-48.74610900878906,,,
2018,12,4,16,55,56,305,-49.22962188720703,,,
2018,12,4,16,55,56,309,-49.40986633300781,,,
2018,12,4,16,55,56,313,-49.25823211669922,,,
2018,12,4,16,55,56,317,-49.03221130371094,1166.0,9721.0,4294964797.0
2018,12,4,16,55,56,321,-49.401283264160156,,,
2018,12,4,16,55,56,325,-49.96204376220703,,,
2018,12,4,16,55,56,329,-50.22239685058594,,,
2018,12,4,16,55,56,332,-50.23384094238281,,,
2018,12,4,16,55,56,336,-50.10795593261719,1068.0,9702.0,4294964719.0
2018,12,4,16,55,56,340,-50.53424835205078,,,
2018,12,4,16,55,56,344,-51.189422607421875,,,
2018,12,4,16,55,56,348,-51.627159118652344,,,
2018,12,4,16,55,56,352,-51.461219787597656,,,
2018,12,4,16,55,56,356,-51.352500915527344,1107.0,9682.0,4294964739.0
2018,12,4,16,55,56,360,-51.61857604980469,,,
2018,12,4,16,55,56,364,-52.17933654785156,,,
2018,12,4,16,55,56,368,-52.514076232910156,,,
2018,12,4,16,55,56,372,-52.35099792480469,,,
2018,12,4,16,55,56,375,-52.127838134765625,1146.0,9702.0,4294964758.0
2018,12,4,16,55,56,379,-52.00481414794922,,,
2018,12,4,16,55,56,383,-52.41107940673828,,,
2018,12,4,16,55,56,387,-52.77729034423828,,,
2018,12,4,16,55,56,391,-52.66284942626953,,,
2018,12,4,16,55,56,395,-52.20508575439453,1205.0,9702.0,4294964739.0
2018,12,4,16,55,56,399,-52.093505859375,,,
2018,12,4,16,55,56,403,-52.49977111816406,,,
2018,12,4,16,55,56,407,-52.814483642578125,,,
2018,12,4,16,55,56,411,-52.53410339355469,,,
2018,12,4,16,55,56,415,-52.176475524902344,1215.0,9721.0,4294964797.0
2018,12,4,16,55,56,418,-52.08778381347656,,,
2018,12,4,16,55,56,422,-52.330970764160156,,,
2018,12,4,16,55,56,426,-52.66857147216797,,,
2018,12,4,16,55,56,430,-52.445411682128906,,,
2018,12,4,16,55,56,434,-52.07347869873047,1234.0,9741.0,4294964621.0
2018,12,4,16,55,56,438,-51.83887481689453,,,
2018,12,4,16,55,56,442,-52.04200744628906,,,
2018,12,4,16,55,56,446,-52.4139404296875,,,
2018,12,4,16,55,56,450,-52.54554748535156,,,
2018,12,4,16,55,56,454,-52.59990692138672,1234.0,9662.0,4294964758.0
2018,12,4,16,55,56,457,-52.290916442871094,,,
2018,12,4,16,55,56,461,-52.48832702636719,,,
2018,12,4,16,55,56,465,-52.82878875732422,,,
2018,12,4,16,55,56,469,-52.80590057373047,,,
2018,12,4,16,55,56,473,-52.41680145263672,1234.0,9721.0,4294964758.0
2018,12,4,16,55,56,477,-52.082061767578125,,,
2018,12,4,16,55,56,481,-52.25658416748047,,,
2018,12,4,16,55,56,485,-52.62565612792969,,,
2018,12,4,16,55,56,489,-52.70862579345703,,,
2018,12,4,16,55,56,493,-52.276611328125,1107.0,9662.0,4294964866.0
2018,12,4,16,55,56,497,-52.102088928222656,,,
2018,12,4,16,55,56,500,-52.265167236328125,,,
2018,12,4,16,55,56,504,-52.677154541015625,,,
2018,12,4,16,55,56,508,-52.857398986816406,,,
2018,12,4,16,55,56,512,-52.59990692138672,1166.0,9770.0,4294964817.0
2018,12,4,16,55,56,516,-52.376747131347656,,,
2018,12,4,16,55,56,520,-52.44255065917969,,,
2018,12,4,16,55,56,524,-53.020477294921875,,,
2018,12,4,16,55,56,528,-53.134918212890625,,,
2018,12,4,16,55,56,532,-52.77729034423828,1127.0,9721.0,4294964856.0
2018,12,4,16,55,56,536,-52.422523498535156,,,
2018,12,4,16,55,56,540,-52.45399475097656,,,
2018,12,4,16,55,56,543,-52.840232849121094,,,
2018,12,4,16,55,56,547,-53.12061309814453,,,
2018,12,4,16,55,56,551,-52.9632568359375,1205.0,9790.0,4294964856.0
2018,12,4,16,55,56,555,-52.63710021972656,,,
2018,12,4,16,55,56,559,-52.63996124267578,,,
2018,12,4,16,55,56,563,-53.066253662109375,,,
2018,12,4,16,55,56,567,-53.33518981933594,,,
2018,12,4,16,55,56,571,-53.086280822753906,1215.0,9809.0,4294964797.0
2018,12,4,16,55,56,575,-52.68287658691406,,,
2018,12,4,16,55,56,579,-52.425384521484375,,,
2018,12,4,16,55,56,582,-52.73723602294922,,,
2018,12,4,16,55,56,586,-53.1463623046875,,,
2018,12,4,16,55,56,590,-53.066253662109375,1254.0,9721.0,4294964778.0
2018,12,4,16,55,56,594,-52.61707305908203,,,
2018,12,4,16,55,56,598,-52.50835418701172,,,
2018,12,4,16,55,56,602,-52.817344665527344,,,
2018,12,4,16,55,56,606,-53.26080322265625,,,
2018,12,4,16,55,56,610,-53.24077606201172,1234.0,9849.0,4294964758.0
2018,12,4,16,55,56,614,-52.7801513671875,,,
2018,12,4,16,55,56,618,-52.405357360839844,,,
2018,12,4,16,55,56,622,-52.61993408203125,,,
2018,12,4,16,55,56,625,-53.086280822753906,,,
2018,12,4,16,55,56,629,-53.03764343261719,1215.0,9760.0,4294964719.0
2018,12,4,16,55,56,633,-52.69432067871094,,,
2018,12,4,16,55,56,637,-52.39391326904297,,,
2018,12,4,16,55,56,641,-52.5970458984375,,,
2018,12,4,16,55,56,645,-52.76012420654297,,,
2018,12,4,16,55,56,649,-52.734375,1146.0,9790.0,4294964739.0
2018,12,4,16,55,56,653,-52.3681640625,,,
2018,12,4,16,55,56,657,-52.059173583984375,,,
2018,12,4,16,55,56,661,-52.25372314453125,,,
2018,12,4,16,55,56,665,-52.611351013183594,,,
2018,12,4,16,55,56,668,-52.628517150878906,1087.0,9662.0,4294964680.0
2018,12,4,16,55,56,672,-52.18219757080078,,,
2018,12,4,16,55,56,676,-51.84173583984375,,,
2018,12,4,16,55,56,680,-51.873207092285156,,,
2018,12,4,16,55,56,684,-52.313804626464844,,,
2018,12,4,16,55,56,688,-52.22511291503906,1146.0,9662.0,4294964699.0
2018,12,4,16,55,56,692,-51.466941833496094,,,
2018,12,4,16,55,56,696,-50.482749938964844,,,
2018,12,4,16,55,56,700,-50.08506774902344,,,
2018,12,4,16,55,56,704,-50.33397674560547,,,
2018,12,4,16,55,56,707,-50.551414489746094,1205.0,9662.0,4294964817.0
2018,12,4,16,55,56,711,-50.24528503417969,,,
2018,12,4,16,55,56,715,-49.881935119628906,,,
2018,12,4,16,55,56,719,-50.087928771972656,,,
2018,12,4,16,55,56,723,-50.80890655517578,,,
2018,12,4,16,55,56,727,-51.054954528808594,1313.0,9888.0,4294964866.0
2018,12,4,16,55,56,731,-50.866127014160156,,,
2018,12,4,16,55,56,735,-50.728797912597656,,,
2018,12,4,16,55,56,739,-51.06353759765625,,,
2018,12,4,16,55,56,743,-52.056312561035156,,,
2018,12,4,16,55,56,747,-52.84309387207031,1254.0,9927.0,4294964905.0
2018,12,4,16,55,56,750,-52.87742614746094,,,
2018,12,4,16,55,56,754,-52.582740783691406,,,
2018,12,4,16,55,56,758,-52.51121520996094,,,
2018,12,4,16,55,56,762,-52.88887023925781,,,
2018,12,4,16,55,56,766,-53.39241027832031,1205.0,10045.0,4294964984.0
2018,12,4,16,55,56,770,-53.52973937988281,,,
2018,12,4,16,55,56,774,-53.275108337402344,,,
2018,12,4,16,55,56,778,-53.05194854736328,,,
2018,12,4,16,55,56,782,-53.35521697998047,,,
2018,12,4,16,55,56,786,-53.72142791748047,1274.0,10084.0,4294965062.0
2018,12,4,16,55,56,790,-53.664207458496094,,,
2018,12,4,16,55,56,793,-53.363800048828125,,,
2018,12,4,16,55,56,797,-53.043365478515625,,,
2018,12,4,16,55,56,801,-53.412437438964844,,,
2018,12,4,16,55,56,805,-53.85589599609375,1372.0,9888.0,4294965140.0
2018,12,4,16,55,56,809,-53.90167236328125,,,
2018,12,4,16,55,56,813,-53.432464599609375,,,
2018,12,4,16,55,56,817,-53.1463623046875,,,
2018,12,4,16,55,56,821,-53.183555603027344,,,
2018,12,4,16,55,56,825,-53.47251892089844,1332.0,9888.0,4294965199.0
2018,12,4,16,55,56,829,-52.697181701660156,,,
2018,12,4,16,55,56,832,-50.94623565673828,,,
2018,12,4,16,55,56,836,-48.58875274658203,,,
2018,12,4,16,55,56,840,-45.80211639404297,,,
2018,12,4,16,55,56,844,-43.31016540527344,1234.0,9868.0,4294965219.0
2018,12,4,16,55,56,848,-40.34900665283203,,,
2018,12,4,16,55,56,852,-38.712501525878906,,,
2018,12,4,16,55,56,856,-39.656639099121094,,,
2018,12,4,16,55,56,860,-45.20988464355469,,,
2018,12,4,16,55,56,864,-51.306724548339844,1293.0,9770.0,4294965140.0
2018,12,4,16,55,56,868,-60.08720397949219,,,
2018,12,4,16,55,56,872,-66.56455993652344,,,
2018,12,4,16,55,56,875,-69.04220581054688,,,
2018,12,4,16,55,56,879,-67.11673736572266,,,
2018,12,4,16,55,56,883,-63.594818115234375,1352.0,9888.0,4294965287.0
2018,12,4,16,55,56,887,-60.97984313964844,,,
2018,12,4,16,55,56,891,-57.952880859375,,,
2018,12,4,16,55,56,895,-54.61406707763672,,,
2018,12,4,16,55,56,899,-53.870201110839844,,,
2018,12,4,16,55,56,903,-54.141998291015625,1372.0,9888.0,4294965219.0
2018,12,4,16,55,56,907,-54.19921875,,,
2018,12,4,16,55,56,911,-53.81011962890625,,,
2018,12,4,16,55,56,915,-53.069114685058594,,,
2018,12,4,16,55,56,918,-52.80017852783203,,,
2018,12,4,16,55,56,922,-53.01189422607422,1332.0,9770.0,4294965140.0
2018,12,4,16,55,56,926,-53.157806396484375,,,
2018,12,4,16,55,56,930,-52.88887023925781,,,
2018,12,4,16,55,56,934,-52.25658416748047,,,
2018,12,4,16,55,56,938,-51.918983459472656,,,
2018,12,4,16,55,56,942,-52.170753479003906,1509.0,9809.0,4294965082.0
2018,12,4,16,55,56,946,-52.61421203613281,,,
2018,12,4,16,55,56,950,-52.34527587890625,,,
2018,12,4,16,55,56,954,-51.941871643066406,,,
2018,12,4,16,55,56,957,-51.69868469238281,,,
2018,12,4,16,55,56,961,-51.70154571533203,1411.0,9770.0,4294965180.0
2018,12,4,16,55,56,965,-52.02770233154297,,,
2018,12,4,16,55,56,969,-51.95045471191406,,,
2018,12,4,16,55,56,973,-51.44977569580078,,,
2018,12,4,16,55,56,977,-51.11217498779297,,,
2018,12,4,16,55,56,981,-51.140785217285156,1254.0,9741.0,4294965003.0
2018,12,4,16,55,56,985,-51.466941833496094,,,
2018,12,4,16,55,56,989,-51.31244659423828,,,
2018,12,4,16,55,56,993,-50.90618133544922,,,
2018,12,4,16,55,56,997,-50.477027893066406,,,
2018,12,4,16,55,57,0,-50.42552947998047,1372.0,9662.0,4294964984.0
2018,12,4,16,55,57,4,-50.85182189941406,,,
2018,12,4,16,55,57,8,-50.871849060058594,,,
2018,12,4,16,55,57,12,-50.39405822753906,,,
2018,12,4,16,55,57,16,-49.89910125732422,,,
2018,12,4,16,55,57,20,-49.8504638671875,1430.0,9721.0,4294965003.0
2018,12,4,16,55,57,24,-50.03070831298828,,,
2018,12,4,16,55,57,28,-50.293922424316406,,,
2018,12,4,16,55,57,32,-49.973487854003906,,,
2018,12,4,16,55,57,36,-49.498558044433594,,,
2018,12,4,16,55,57,40,-49.404144287109375,1450.0,9643.0,4294964778.0
2018,12,4,16,55,57,43,-49.698829650878906,,,
2018,12,4,16,55,57,47,-49.747467041015625,,,
2018,12,4,16,55,57,51,-49.35264587402344,,,
2018,12,4,16,55,57,55,-48.80332946777344,,,
2018,12,4,16,55,57,59,-48.68316650390625,1313.0,9643.0,4294964660.0
2018,12,4,16,55,57,63,-48.86054992675781,,,
2018,12,4,16,55,57,67,-49.05509948730469,,,
2018,12,4,16,55,57,71,-48.6602783203125,,,
2018,12,4,16,55,57,75,-48.08521270751953,,,
2018,12,4,16,55,57,79,-47.896385192871094,1293.0,9643.0,4294964621.0
2018,12,4,16,55,57,82,-48.11382293701172,,,
2018,12,4,16,55,57,86,-48.33984375,,,
2018,12,4,16,55,57,90,-48.216819763183594,,,
2018,12,4,16,55,57,94,-47.698974609375,,,
2018,12,4,16,55,57,98,-47.51014709472656,1313.0,9604.0,4294964601.0
2018,12,4,16,55,57,102,-47.759056091308594,,,
2018,12,4,16,55,57,106,-48.01654815673828,,,
2018,12,4,16,55,57,110,-47.916412353515625,,,
2018,12,4,16,55,57,114,-47.641754150390625,,,
2018,12,4,16,55,57,118,-47.524452209472656,1411.0,9682.0,4294964503.0
2018,12,4,16,55,57,122,-47.92213439941406,,,
2018,12,4,16,55,57,125,-48.325538635253906,,,
2018,12,4,16,55,57,129,-48.26831817626953,,,
2018,12,4,16,55,57,133,-47.985076904296875,,,
2018,12,4,16,55,57,137,-47.86205291748047,1352.0,9721.0,4294964523.0
2018,12,4,16,55,57,141,-48.08235168457031,,,
2018,12,4,16,55,57,145,-48.514366149902344,,,
2018,12,4,16,55,57,149,-48.71177673339844,,,
2018,12,4,16,55,57,153,-48.47431182861328,,,
2018,12,4,16,55,57,157,-49.13520812988281,1274.0,9623.0,4294964396.0
2018,12,4,16,55,57,161,-49.47853088378906,,,
2018,12,4,16,55,57,165,-49.96204376220703,,,
2018,12,4,16,55,57,168,-50.230979919433594,,,
2018,12,4,16,55,57,172,-50.11940002441406,,,
2018,12,4,16,55,57,176,-50.045013427734375,,,
2018,12,4,16,55,57,180,-50.39691925048828,,,
2018,12,4,16,55,57,184,-51.05781555175781,,,
2018,12,4,16,55,57,188,-51.509857177734375,,,
2018,12,4,16,55,57,192,-51.33819580078125,,,
2018,12,4,16,55,57,196,-51.25236511230469,1332.0,9662.0,4294964356.0
2018,12,4,16,55,57,200,-51.36394500732422,,,
2018,12,4,16,55,57,204,-51.79309844970703,,,
2018,12,4,16,55,57,207,-52.05345153808594,,,
2018,12,4,16,55,57,211,-51.95903778076172,,,
2018,12,4,16,55,57,215,-51.6815185546875,1372.0,9604.0,4294964278.0
2018,12,4,16,55,57,219,-51.93328857421875,,,
2018,12,4,16,55,57,223,-52.01911926269531,,,
2018,12,4,16,55,57,227,-52.22511291503906,,,
2018,12,4,16,55,57,231,-51.898956298828125,,,
2018,12,4,16,55,57,235,-51.63002014160156,1411.0,9564.0,4294964239.0
2018,12,4,16,55,57,239,-51.489830017089844,,,
2018,12,4,16,55,57,243,-51.738739013671875,,,
2018,12,4,16,55,57,247,-52.14214324951172,,,
2018,12,4,16,55,57,250,-51.944732666015625,,,
2018,12,4,16,55,57,254,-51.54132843017578,1352.0,9564.0,4294964298.0
2018,12,4,16,55,57,258,-51.438331604003906,,,
2018,12,4,16,55,57,262,-51.644325256347656,,,
2018,12,4,16,55,57,266,-51.89037322998047,,,
2018,12,4,16,55,57,270,-51.67865753173828,,,
2018,12,4,16,55,57,274,-51.301002502441406,1352.0,9525.0,4294964200.0
2018,12,4,16,55,57,278,-51.11503601074219,,,
2018,12,4,16,55,57,282,-51.56421661376953,,,
2018,12,4,16,55,57,286,-51.850318908691406,,,
2018,12,4,16,55,57,290,-51.758766174316406,,,
2018,12,4,16,55,57,293,-51.28669738769531,1430.0,9506.0,4294964239.0
2018,12,4,16,55,57,297,-51.077842712402344,,,
2018,12,4,16,55,57,301,-51.283836364746094,,,
2018,12,4,16,55,57,305,-51.58424377441406,,,
2018,12,4,16,55,57,309,-51.64146423339844,,,
2018,12,4,16,55,57,313,-51.21803283691406,1411.0,9525.0,4294964298.0
2018,12,4,16,55,57,317,-51.054954528808594,,,
2018,12,4,16,55,57,321,-51.192283630371094,,,
2018,12,4,16,55,57,325,-51.52702331542969,,,
2018,12,4,16,55,57,329,-51.604270935058594,,,
2018,12,4,16,55,57,332,-51.33247375488281,1411.0,9466.0,4294964219.0
2018,12,4,16,55,57,336,-51.15509033203125,,,
2018,12,4,16,55,57,340,-51.306724548339844,,,
2018,12,4,16,55,57,344,-51.5899658203125,,,
2018,12,4,16,55,57,348,-51.81598663330078,,,
2018,12,4,16,55,57,352,-51.52130126953125,1352.0,9525.0,4294964200.0
2018,12,4,16,55,57,356,-51.278114318847656,,,
2018,12,4,16,55,57,360,-51.306724548339844,,,
2018,12,4,16,55,57,364,-51.72443389892578,,,
2018,12,4,16,55,57,368,-51.93042755126953,,,
2018,12,4,16,55,57,372,-51.67865753173828,1450.0,9447.0,4294964102.0
2018,12,4,16,55,57,375,-51.42974853515625,,,
2018,12,4,16,55,57,379,-51.484107971191406,,,
2018,12,4,16,55,57,383,-51.83887481689453,,,
2018,12,4,16,55,57,387,-52.010536193847656,,,
2018,12,4,16,55,57,391,-51.76734924316406,1430.0,9466.0,4294964062.0
2018,12,4,16,55,57,395,-51.61857604980469,,,
2018,12,4,16,55,57,399,-51.578521728515625,,,
2018,12,4,16,55,57,403,-51.970481872558594,,,
2018,12,4,16,55,57,407,-52.18505859375,,,
2018,12,4,16,55,57,411,-51.88751220703125,1430.0,9486.0,4294963994.0
2018,12,4,16,55,57,415,-51.51844024658203,,,
2018,12,4,16,55,57,418,-51.49555206298828,,,
2018,12,4,16,55,57,422,-51.781654357910156,,,
2018,12,4,16,55,57,426,-52.00481414794922,,,
2018,12,4,16,55,57,430,-51.918983459472656,1470.0,9486.0,4294964033.0
2018,12,4,16,55,57,434,-51.598548889160156,,,
2018,12,4,16,55,57,438,-51.52416229248047,,,
2018,12,4,16,55,57,442,-51.761627197265625,,,
2018,12,4,16,55,57,446,-52.00481414794922,,,
2018,12,4,16,55,57,450,-51.93901062011719,1489.0,9486.0,4294964013.0
2018,12,4,16,55,57,454,-51.65290832519531,,,
2018,12,4,16,55,57,457,-51.63002014160156,,,
2018,12,4,16,55,57,461,-51.77021026611328,,,
2018,12,4,16,55,57,465,-52.033424377441406,,,
2018,12,4,16,55,57,469,-52.07347869873047,1587.0,9339.0,4294963994.0
2018,12,4,16,55,57,473,-51.56135559082031,,,
2018,12,4,16,55,57,477,-51.19800567626953,,,
2018,12,4,16,55,57,481,-51.486968994140625,,,
2018,12,4,16,55,57,485,-51.93328857421875,,,
2018,12,4,16,55,57,489,-51.90753936767578,1548.0,9359.0,4294963955.0
2018,12,4,16,55,57,493,-51.621437072753906,,,
2018,12,4,16,55,57,497,-51.323890686035156,,,
2018,12,4,16,55,57,500,-51.464080810546875,,,
2018,12,4,16,55,57,504,-51.896095275878906,,,
2018,12,4,16,55,57,508,-52.033424377441406,1568.0,9408.0,4294963974.0
2018,12,4,16,55,57,512,-51.727294921875,,,
2018,12,4,16,55,57,516,-51.555633544921875,,,
2018,12,4,16,55,57,520,-51.627159118652344,,,
2018,12,4,16,55,57,524,-51.98192596435547,,,
2018,12,4,16,55,57,528,-52.079200744628906,1528.0,9261.0,4294963955.0
2018,12,4,16,55,57,532,-51.83887481689453,,,
2018,12,4,16,55,57,536,-51.349639892578125,,,
2018,12,4,16,55,57,540,-51.352500915527344,,,
2018,12,4,16,55,57,543,-51.604270935058594,,,
2018,12,4,16,55,57,547,-51.532745361328125,1587.0,9319.0,4294963915.0
2018,12,4,16,55,57,551,-51.415443420410156,,,
2018,12,4,16,55,57,555,-51.209449768066406,,,
2018,12,4,16,55,57,559,-50.940513610839844,,,
2018,12,4,16,55,57,563,-50.911903381347656,,,
2018,12,4,16,55,57,567,-50.1251220703125,1636.0,9319.0,4294963896.0
2018,12,4,16,55,57,571,-49.515724182128906,,,
2018,12,4,16,55,57,575,-49.09229278564453,,,
2018,12,4,16,55,57,579,-49.05509948730469,,,
2018,12,4,16,55,57,582,-49.23248291015625,,,
2018,12,4,16,55,57,586,-49.561500549316406,1607.0,9339.0,4294963817.0
2018,12,4,16,55,57,590,-49.70741271972656,,,
2018,12,4,16,55,57,594,-49.48139190673828,,,
2018,12,4,16,55,57,598,-49.38697814941406,,,
2018,12,4,16,55,57,602,-49.78752136230469,,,
2018,12,4,16,55,57,606,-50.15373229980469,1675.0,9447.0,4294963759.0
2018,12,4,16,55,57,610,-50.774574279785156,,,
2018,12,4,16,55,57,614,-51.01776123046875,,,
2018,12,4,16,55,57,618,-51.11217498779297,,,
2018,12,4,16,55,57,622,-51.50127410888672,,,
2018,12,4,16,55,57,625,-51.921844482421875,1675.0,9427.0,4294963778.0
2018,12,4,16,55,57,629,-51.987648010253906,,,
2018,12,4,16,55,57,633,-51.71012878417969,,,
2018,12,4,16,55,57,637,-51.624298095703125,,,
2018,12,4,16,55,57,641,-51.75590515136719,,,
2018,12,4,16,55,57,645,-52.079200744628906,1715.0,9486.0,4294963837.0
2018,12,4,16,55,57,649,-52.150726318359375,,,
2018,12,4,16,55,57,653,-51.944732666015625,,,
2018,12,4,16,55,57,657,-51.63288116455078,,,
2018,12,4,16,55,57,661,-51.7730712890625,,,
2018,12,4,16,55,57,665,-52.11067199707031,1656.0,9427.0,4294963817.0
2018,12,4,16,55,57,668,-51.8646240234375,,,
2018,12,4,16,55,57,672,-51.75590515136719,,,
2018,12,4,16,55,57,676,-51.49269104003906,,,
2018,12,4,16,55,57,680,-51.65863037109375,,,
2018,12,4,16,55,57,684,-51.944732666015625,1636.0,9427.0,4294963857.0
2018,12,4,16,55,57,688,-51.990509033203125,,,
2018,12,4,16,55,57,692,-51.56993865966797,,,
2018,12,4,16,55,57,696,-51.006317138671875,,,
2018,12,4,16,55,57,700,-50.087928771972656,,,
2018,12,4,16,55,57,704,-49.063682556152344,1626.0,9408.0,4294963759.0
2018,12,4,16,55,57,707,-47.08099365234375,,,
2018,12,4,16,55,57,711,-44.094085693359375,,,
2018,12,4,16,55,57,715,-40.617942810058594,,,
2018,12,4,16,55,57,719,-37.07313537597656,,,
2018,12,4,16,55,57,723,-37.090301513671875,1607.0,9408.0,4294963837.0
2018,12,4,16,55,57,727,-40.040016174316406,,,
2018,12,4,16,55,57,731,-45.7763671875,,,
2018,12,4,16,55,57,735,-51.61571502685547,,,
2018,12,4,16,55,57,739,-60.524940490722656,,,
2018,12,4,16,55,57,743,-66.42723083496094,1509.0,9359.0,4294963896.0
2018,12,4,16,55,57,747,-68.60733032226562,,,
2018,12,4,16,55,57,750,-65.57178497314453,,,
2018,12,4,16,55,57,754,-61.56349182128906,,,
2018,12,4,16,55,57,758,-58.77113342285156,,,
2018,12,4,16,55,57,762,-56.21623992919922,1470.0,9427.0,4294963857.0
2018,12,4,16,55,57,766,-53.30944061279297,,,
2018,12,4,16,55,57,770,-52.64568328857422,,,
2018,12,4,16,55,57,774,-52.12211608886719,,,
2018,12,4,16,55,57,778,-51.86176300048828,,,
2018,12,4,16,55,57,782,-51.827430725097656,1430.0,9388.0,4294963778.0
2018,12,4,16,55,57,786,-52.07347869873047,,,
2018,12,4,16,55,57,790,-51.738739013671875,,,
2018,12,4,16,55,57,793,-51.06925964355469,,,
2018,12,4,16,55,57,797,-50.90904235839844,,,
2018,12,4,16,55,57,801,-50.97484588623047,1489.0,9368.0,4294963778.0
2018,12,4,16,55,57,805,-51.17511749267578,,,
2018,12,4,16,55,57,809,-50.820350646972656,,,
2018,12,4,16,55,57,813,-50.5828857421875,,,
2018,12,4,16,55,57,817,-50.28820037841797,,,
2018,12,4,16,55,57,821,-50.479888916015625,1450.0,9359.0,4294963896.0
2018,12,4,16,55,57,825,-50.67157745361328,,,
2018,12,4,16,55,57,829,-50.64868927001953,,,
2018,12,4,16,55,57,832,-50.271034240722656,,,
2018,12,4,16,55,57,836,-50.06217956542969,,,
2018,12,4,16,55,57,840,-49.979209899902344,1391.0,9300.0,4294963759.0
2018,12,4,16,55,57,844,-50.202369689941406,,,
2018,12,4,16,55,57,848,-50.05931854248047,,,
2018,12,4,16,55,57,852,-49.675941467285156,,,
2018,12,4,16,55,57,856,-49.36695098876953,,,
2018,12,4,16,55,57,860,-49.012184143066406,1509.0,9368.0,4294963719.0
2018,12,4,16,55,57,864,-49.25251007080078,,,
2018,12,4,16,55,57,868,-49.26109313964844,,,
2018,12,4,16,55,57,872,-49.1180419921875,,,
2018,12,4,16,55,57,875,-48.829078674316406,,,
2018,12,4,16,55,57,879,-48.65741729736328,1450.0,9339.0,4294963778.0
2018,12,4,16,55,57,883,-48.9349365234375,,,
2018,12,4,16,55,57,887,-48.972129821777344,,,
2018,12,4,16,55,57,891,-48.7518310546875,,,
2018,12,4,16,55,57,895,-48.29120635986328,,,
2018,12,4,16,55,57,899,-48.171043395996094,1470.0,9447.0,4294963857.0
2018,12,4,16,55,57,903,-48.374176025390625,,,
2018,12,4,16,55,57,907,-48.46000671386719,,,
2018,12,4,16,55,57,911,-48.188209533691406,,,
2018,12,4,16,55,57,915,-47.86205291748047,,,
2018,12,4,16,55,57,918,-47.550201416015625,1470.0,9486.0,4294963817.0
2018,12,4,16,55,57,922,-47.9736328125,,,
2018,12,4,16,55,57,926,-48.36273193359375,,,
2018,12,4,16,55,57,930,-47.97649383544922,,,
2018,12,4,16,55,57,934,-47.58167266845703,,,
2018,12,4,16,55,57,938,-47.32990264892578,1528.0,9447.0,4294963739.0
2018,12,4,16,55,57,942,-47.37567901611328,,,
2018,12,4,16,55,57,946,-47.55592346191406,,,
2018,12,4,16,55,57,950,-47.36137390136719,,,
2018,12,4,16,55,57,954,-46.85211181640625,,,
2018,12,4,16,55,57,957,-46.520233154296875,1489.0,9427.0,4294963817.0
2018,12,4,16,55,57,961,-46.78058624267578,,,
2018,12,4,16,55,57,965,-47.049522399902344,,,
2018,12,4,16,55,57,969,-47.046661376953125,,,
2018,12,4,16,55,57,973,-46.631813049316406,,,
2018,12,4,16,55,57,977,-46.52595520019531,1626.0,9359.0,4294963896.0
2018,12,4,16,55,57,981,-46.69475555419922,,,
2018,12,4,16,55,57,985,-46.966552734375,,,
2018,12,4,16,55,57,989,-46.78916931152344,,,
2018,12,4,16,55,57,993,-46.637535095214844,,,
2018,12,4,16,55,57,997,-46.497344970703125,1548.0,9368.0,4294963837.0
2018,12,4,16,55,58,0,-46.69761657714844,,,
2018,12,4,16,55,58,4,-47.158241271972656,,,
2018,12,4,16,55,58,8,-47.26123809814453,,,
2018,12,4,16,55,58,12,-46.98657989501953,,,
2018,12,4,16,55,58,16,-46.89502716064453,1528.0,9319.0,4294963857.0
2018,12,4,16,55,58,20,-46.966552734375,,,
2018,12,4,16,55,58,24,-47.55592346191406,,,
2018,12,4,16,55,58,28,-47.882080078125,,,
2018,12,4,16,55,58,32,-47.713279724121094,,,
2018,12,4,16,55,58,36,-47.527313232421875,1470.0,9280.0,4294963857.0
2018,12,4,16,55,58,40,-47.79338836669922,,,
2018,12,4,16,55,58,43,-48.35700988769531,,,
2018,12,4,16,55,58,47,-48.76899719238281,,,
2018,12,4,16,55,58,51,-48.442840576171875,,,
2018,12,4,16,55,58,55,-48.809051513671875,1528.0,9319.0,4294963876.0
2018,12,4,16,55,58,59,-48.98643493652344,,,
2018,12,4,16,55,58,63,-49.52430725097656,,,
2018,12,4,16,55,58,67,-49.861907958984375,,,
2018,12,4,16,55,58,71,-49.98779296875,,,
2018,12,4,16,55,58,75,-49.73888397216797,1607.0,9408.0,4294963817.0
2018,12,4,16,55,58,79,-49.87049102783203,,,
2018,12,4,16,55,58,82,-50.16517639160156,,,
2018,12,4,16,55,58,86,-50.477027893066406,,,
2018,12,4,16,55,58,90,-50.35114288330078,,,
2018,12,4,16,55,58,94,-50.07648468017578,1568.0,9388.0,4294963896.0
2018,12,4,16,55,58,98,-50.02784729003906,,,
2018,12,4,16,55,58,102,-50.40264129638672,,,
2018,12,4,16,55,58,106,-50.6744384765625,,,
2018,12,4,16,55,58,110,-50.594329833984375,,,
2018,12,4,16,55,58,114,-50.37117004394531,1568.0,9486.0,4294963994.0
2018,12,4,16,55,58,118,-50.182342529296875,,,
2018,12,4,16,55,58,122,-50.32825469970703,,,
2018,12,4,16,55,58,125,-50.62294006347656,,,
2018,12,4,16,55,58,129,-50.459861755371094,,,
2018,12,4,16,55,58,133,-50.248146057128906,1528.0,9447.0,4294963857.0
2018,12,4,16,55,58,137,-50.042152404785156,,,
2018,12,4,16,55,58,141,-50.24528503417969,,,
2018,12,4,16,55,58,145,-50.60005187988281,,,
2018,12,4,16,55,58,149,-50.53138732910156,,,
2018,12,4,16,55,58,153,-50.25959014892578,1548.0,9359.0,4294963915.0
2018,12,4,16,55,58,157,-50.02784729003906,,,
2018,12,4,16,55,58,161,-50.07648468017578,,,
2018,12,4,16,55,58,165,-50.411224365234375,,,
2018,12,4,16,55,58,168,-50.47130584716797,,,
2018,12,4,16,55,58,172,-50.228118896484375,,,
2018,12,4,16,55,58,176,-49.976348876953125,,,
2018,12,4,16,55,58,180,-50.27961730957031,,,
2018,12,4,16,55,58,184,-50.72021484375,,,
2018,12,4,16,55,58,188,-50.734519958496094,,,
2018,12,4,16,55,58,192,-50.457000732421875,4294963837.0,1626.0,9427.0
2018,12,4,16,55,58,196,-50.12226104736328,,,
2018,12,4,16,55,58,200,-50.179481506347656,,,
2018,12,4,16,55,58,204,-50.548553466796875,,,
2018,12,4,16,55,58,207,-50.780296325683594,,,
2018,12,4,16,55,58,211,-50.57716369628906,4294963915.0,1636.0,9486.0
2018,12,4,16,55,58,215,-50.23670196533203,,,
2018,12,4,16,55,58,219,-50.271034240722656,,,
2018,12,4,16,55,58,223,-50.620079040527344,,,
2018,12,4,16,55,58,227,-50.88615417480469,,,
2018,12,4,16,55,58,231,-50.69446563720703,4294963915.0,1626.0,9427.0
2018,12,4,16,55,58,235,-50.499916076660156,,,
2018,12,4,16,55,58,239,-50.454139709472656,,,
2018,12,4,16,55,58,243,-50.800323486328125,,,
2018,12,4,16,55,58,247,-51.31816864013672,,,
2018,12,4,16,55,58,250,-51.166534423828125,4294963896.0,1656.0,9486.0
2018,12,4,16,55,58,254,-50.777435302734375,,,
2018,12,4,16,55,58,258,-50.820350646972656,,,
2018,12,4,16,55,58,262,-51.026344299316406,,,
2018,12,4,16,55,58,266,-51.177978515625,,,
2018,12,4,16,55,58,270,-51.06639862060547,4294963817.0,1636.0,9447.0
2018,12,4,16,55,58,274,-50.868988037109375,,,
2018,12,4,16,55,58,278,-50.660133361816406,,,
2018,12,4,16,55,58,282,-50.83465576171875,,,
2018,12,4,16,55,58,286,-51.177978515625,,,
2018,12,4,16,55,58,290,-51.100730895996094,4294963817.0,1636.0,9388.0
2018,12,4,16,55,58,293,-50.811767578125,,,
2018,12,4,16,55,58,297,-50.620079040527344,,,
2018,12,4,16,55,58,301,-50.85182189941406,,,
2018,12,4,16,55,58,305,-51.212310791015625,,,
2018,12,4,16,55,58,309,-51.44977569580078,4294963837.0,1636.0,9486.0
2018,12,4,16,55,58,313,-50.97770690917969,,,
2018,12,4,16,55,58,317,-50.78601837158203,,,
2018,12,4,16,55,58,321,-50.88615417480469,,,
2018,12,4,16,55,58,325,-51.235198974609375,,,
2018,12,4,16,55,58,329,-51.30958557128906,4294963798.0,1636.0,9427.0
2018,12,4,16,55,58,332,-50.94623565673828,,,
2018,12,4,16,55,58,336,-50.63152313232422,,,
2018,12,4,16,55,58,340,-50.93193054199219,,,
2018,12,4,16,55,58,344,-51.260948181152344,,,
2018,12,4,16,55,58,348,-51.31816864013672,4294963759.0,1607.0,9359.0
2018,12,4,16,55,58,352,-51.06639862060547,,,
2018,12,4,16,55,58,356,-50.846099853515625,,,
2018,12,4,16,55,58,360,-50.96626281738281,,,
2018,12,4,16,55,58,364,-51.25236511230469,,,
2018,12,4,16,55,58,368,-51.28955841064453,4294963798.0,1607.0,9280.0
2018,12,4,16,55,58,372,-50.628662109375,,,
2018,12,4,16,55,58,375,-50.33111572265625,,,
2018,12,4,16,55,58,379,-50.51708221435547,,,
2018,12,4,16,55,58,383,-50.846099853515625,,,
2018,12,4,16,55,58,387,-50.9490966796875,4294963798.0,1548.0,9300.0
2018,12,4,16,55,58,391,-50.797462463378906,,,
2018,12,4,16,55,58,395,-50.55427551269531,,,
2018,12,4,16,55,58,399,-50.56285858154297,,,
2018,12,4,16,55,58,403,-50.957679748535156,,,
2018,12,4,16,55,58,407,-51.15509033203125,4294963798.0,1607.0,9300.0
2018,12,4,16,55,58,411,-50.87757110595703,,,
2018,12,4,16,55,58,415,-50.502777099609375,,,
