Year,Month,Day,Hour,Min,Sec,Msec,P02S ECG,P02S G1,P02S G2,P02S G3
2018,11,27,18,24,31,706,-244.3857192993164,5968.0,7840.0,4294964856.0
2018,11,27,18,24,31,710,-244.4601058959961,,,
2018,11,27,18,24,31,713,-244.44007873535156,,,
2018,11,27,18,24,31,717,-244.44007873535156,,,
2018,11,27,18,24,31,721,-244.4314956665039,,,
2018,11,27,18,24,31,725,-244.39144134521484,5929.0,7918.0,4294964797.0
2018,11,27,18,24,31,729,-244.38858032226562,,,
2018,11,27,18,24,31,733,-244.5230484008789,,,
2018,11,27,18,24,31,737,-244.42577362060547,,,
2018,11,27,18,24,31,741,-244.38858032226562,,,
2018,11,27,18,24,31,745,-244.28272247314453,5987.0,8016.0,4294964817.0
2018,11,27,18,24,31,749,-244.0023422241211,,,
2018,11,27,18,24,31,753,-243.89362335205078,,,
2018,11,27,18,24,31,756,-243.99089813232422,,,
2018,11,27,18,24,31,760,-243.86215209960938,,,
2018,11,27,18,24,31,764,-243.8335418701172,6066.0,7957.0,4294964797.0
2018,11,27,18,24,31,768,-243.80779266357422,,,
2018,11,27,18,24,31,772,-243.4844970703125,,,
2018,11,27,18,24,31,776,-242.9494857788086,,,
2018,11,27,18,24,31,780,-242.91229248046875,,,
2018,11,27,18,24,31,784,-243.01815032958984,6027.0,8075.0,4294964621.0
2018,11,27,18,24,31,788,-243.2842254638672,,,
2018,11,27,18,24,31,792,-243.4844970703125,,,
2018,11,27,18,24,31,795,-243.67046356201172,,,
2018,11,27,18,24,31,799,-243.88504028320312,,,
2018,11,27,18,24,31,803,-244.00806427001953,6046.0,8016.0,4294964562.0
2018,11,27,18,24,31,807,-244.0166473388672,,,
2018,11,27,18,24,31,811,-244.15111541748047,,,
2018,11,27,18,24,31,815,-244.33422088623047,,,
2018,11,27,18,24,31,819,-244.3828582763672,,,
2018,11,27,18,24,31,823,-244.3857192993164,6154.0,7859.0,4294964601.0
2018,11,27,18,24,31,827,-244.37999725341797,,,
2018,11,27,18,24,31,831,-244.44007873535156,,,
2018,11,27,18,24,31,835,-244.31419372558594,,,
2018,11,27,18,24,31,838,-244.39430236816406,,,
2018,11,27,18,24,31,842,-244.2913055419922,6134.0,7634.0,4294964376.0
2018,11,27,18,24,31,846,-244.28558349609375,,,
2018,11,27,18,24,31,850,-244.52590942382812,,,
2018,11,27,18,24,31,854,-244.59457397460938,,,
2018,11,27,18,24,31,858,-244.44580078125,,,
2018,11,27,18,24,31,862,-244.4915771484375,6046.0,7379.0,4294964396.0
2018,11,27,18,24,31,866,-244.46582794189453,,,
2018,11,27,18,24,31,870,-244.56310272216797,,,
2018,11,27,18,24,31,874,-244.54593658447266,,,
2018,11,27,18,24,31,878,-244.6117401123047,,,
2018,11,27,18,24,31,881,-244.5688247680664,6007.0,7399.0,4294964503.0
2018,11,27,18,24,31,885,-243.65901947021484,,,
2018,11,27,18,24,31,889,-241.3015365600586,,,
2018,11,27,18,24,31,893,-238.6035919189453,,,
2018,11,27,18,24,31,897,-236.01436614990234,,,
2018,11,27,18,24,31,901,-231.99462890625,5948.0,7516.0,4294964356.0
2018,11,27,18,24,31,905,-226.5157699584961,,,
2018,11,27,18,24,31,909,-224.1353988647461,,,
2018,11,27,18,24,31,913,-228.37257385253906,,,
2018,11,27,18,24,31,917,-235.6853485107422,,,
2018,11,27,18,24,31,920,-239.85671997070312,5870.0,7575.0,4294964435.0
2018,11,27,18,24,31,924,-244.49729919433594,,,
2018,11,27,18,24,31,928,-249.9074935913086,,,
2018,11,27,18,24,31,932,-248.72875213623047,,,
2018,11,27,18,24,31,936,-245.94783782958984,,,
2018,11,27,18,24,31,940,-243.7448501586914,5909.0,7693.0,4294964376.0
2018,11,27,18,24,31,944,-243.37291717529297,,,
2018,11,27,18,24,31,948,-243.64757537841797,,,
2018,11,27,18,24,31,952,-244.1253662109375,,,
2018,11,27,18,24,31,956,-244.11678314208984,,,
2018,11,27,18,24,31,960,-244.27127838134766,5831.0,7653.0,4294964484.0
2018,11,27,18,24,31,963,-244.05670166015625,,,
2018,11,27,18,24,31,967,-244.17686462402344,,,
2018,11,27,18,24,31,971,-244.171142578125,,,
2018,11,27,18,24,31,975,-244.13394927978516,,,
2018,11,27,18,24,31,979,-244.1997528076172,5772.0,7653.0,4294964464.0
2018,11,27,18,24,31,983,-243.98231506347656,,,
2018,11,27,18,24,31,987,-243.89076232910156,,,
2018,11,27,18,24,31,991,-243.91651153564453,,,
2018,11,27,18,24,31,995,-243.6990737915039,,,
2018,11,27,18,24,31,999,-243.5932159423828,5772.0,7879.0,4294964102.0
2018,11,27,18,24,32,3,-243.6504364013672,,,
2018,11,27,18,24,32,6,-243.5932159423828,,,
2018,11,27,18,24,32,10,-243.5016632080078,,,
2018,11,27,18,24,32,14,-243.38436126708984,,,
2018,11,27,18,24,32,18,-243.26705932617188,5929.0,7781.0,4294964454.0
2018,11,27,18,24,32,22,-243.12114715576172,,,
2018,11,27,18,24,32,26,-243.06392669677734,,,
2018,11,27,18,24,32,30,-242.8436279296875,,,
2018,11,27,18,24,32,34,-242.7692413330078,,,
2018,11,27,18,24,32,38,-242.65766143798828,5811.0,7673.0,4294964543.0
2018,11,27,18,24,32,42,-242.62332916259766,,,
2018,11,27,18,24,32,45,-242.35153198242188,,,
2018,11,27,18,24,32,49,-242.11406707763672,,,
2018,11,27,18,24,32,53,-242.06829071044922,,,
2018,11,27,18,24,32,57,-242.1112060546875,5850.0,7712.0,4294964337.0
2018,11,27,18,24,32,61,-241.93382263183594,,,
2018,11,27,18,24,32,65,-242.36583709716797,,,
2018,11,27,18,24,32,69,-242.22564697265625,,,
2018,11,27,18,24,32,73,-242.0969009399414,,,
2018,11,27,18,24,32,77,-241.84513092041016,6007.0,7761.0,4294964298.0
2018,11,27,18,24,32,81,-241.7621612548828,,,
2018,11,27,18,24,32,85,-241.89090728759766,,,
2018,11,27,18,24,32,88,-241.77074432373047,,,
2018,11,27,18,24,32,92,-241.9281005859375,,,
2018,11,27,18,24,32,96,-241.93096160888672,5850.0,7732.0,4294964278.0
2018,11,27,18,24,32,100,-242.14553833007812,,,
2018,11,27,18,24,32,104,-242.19131469726562,,,
2018,11,27,18,24,32,108,-242.28286743164062,,,
2018,11,27,18,24,32,112,-242.32864379882812,,,
2018,11,27,18,24,32,116,-242.50030517578125,5850.0,7781.0,4294964337.0
2018,11,27,18,24,32,120,-242.86365509033203,,,
2018,11,27,18,24,32,124,-243.072509765625,,,
2018,11,27,18,24,32,128,-243.47305297851562,,,
2018,11,27,18,24,32,131,-244.11392211914062,,,
2018,11,27,18,24,32,135,-244.20547485351562,5811.0,7800.0,4294964298.0
2018,11,27,18,24,32,139,-244.33135986328125,,,
2018,11,27,18,24,32,143,-244.31705474853516,,,
2018,11,27,18,24,32,147,-244.49729919433594,,,
2018,11,27,18,24,32,151,-244.53449249267578,,,
2018,11,27,18,24,32,155,-244.44866180419922,5831.0,7859.0,4294964258.0
2018,11,27,18,24,32,159,-244.2770004272461,,,
2018,11,27,18,24,32,163,-244.2455291748047,,,
2018,11,27,18,24,32,167,-244.15111541748047,,,
2018,11,27,18,24,32,170,-244.07672882080078,,,
2018,11,27,18,24,32,174,-243.8507080078125,5811.0,7781.0,4294964376.0
2018,11,27,18,24,32,178,-243.8335418701172,,,
2018,11,27,18,24,32,182,-243.83926391601562,,,
2018,11,27,18,24,32,186,-243.70479583740234,,,
2018,11,27,18,24,32,190,-243.61324310302734,,,
2018,11,27,18,24,32,194,-243.12973022460938,5791.0,7879.0,4294964317.0
2018,11,27,18,24,32,198,-243.24703216552734,,,
2018,11,27,18,24,32,202,-243.20697784423828,,,
2018,11,27,18,24,32,206,-243.25847625732422,,,
2018,11,27,18,24,32,210,-243.15834045410156,,,
2018,11,27,18,24,32,213,-243.1955337524414,5752.0,7712.0,4294964376.0
2018,11,27,18,24,32,217,-243.14117431640625,,,
2018,11,27,18,24,32,221,-243.11542510986328,,,
2018,11,27,18,24,32,225,-243.1497573852539,,,
2018,11,27,18,24,32,229,-243.06678771972656,,,
2018,11,27,18,24,32,233,-243.00384521484375,5664.0,7820.0,4294964317.0
2018,11,27,18,24,32,237,-243.1039810180664,,,
2018,11,27,18,24,32,241,-242.99240112304688,,,
2018,11,27,18,24,32,245,-243.07537078857422,,,
2018,11,27,18,24,32,249,-243.06964874267578,,,
2018,11,27,18,24,32,253,-243.06392669677734,5791.0,7898.0,4294964337.0
2018,11,27,18,24,32,256,-243.05248260498047,,,
2018,11,27,18,24,32,260,-243.1325912475586,,,
2018,11,27,18,24,32,264,-242.98381805419922,,,
2018,11,27,18,24,32,268,-243.03531646728516,,,
2018,11,27,18,24,32,272,-243.1468963623047,5791.0,7977.0,4294964337.0
2018,11,27,18,24,32,276,-243.1039810180664,,,
2018,11,27,18,24,32,280,-243.05248260498047,,,
2018,11,27,18,24,32,284,-243.00384521484375,,,
2018,11,27,18,24,32,288,-243.1354522705078,,,
2018,11,27,18,24,32,292,-242.9666519165039,5733.0,7879.0,4294964317.0
2018,11,27,18,24,32,295,-242.93804168701172,,,
2018,11,27,18,24,32,299,-243.04676055908203,,,
2018,11,27,18,24,32,303,-243.06678771972656,,,
2018,11,27,18,24,32,307,-243.12114715576172,,,
2018,11,27,18,24,32,311,-243.25275421142578,5733.0,7859.0,4294964356.0
2018,11,27,18,24,32,315,-243.30711364746094,,,
2018,11,27,18,24,32,319,-243.3013916015625,,,
2018,11,27,18,24,32,323,-243.10970306396484,,,
2018,11,27,18,24,32,327,-242.74921417236328,,,
2018,11,27,18,24,32,331,-243.1182861328125,5850.0,7879.0,4294964356.0
2018,11,27,18,24,32,335,-243.13831329345703,,,
2018,11,27,18,24,32,338,-243.14403533935547,,,
2018,11,27,18,24,32,342,-243.33858489990234,,,
2018,11,27,18,24,32,346,-243.38722229003906,,,
2018,11,27,18,24,32,350,-243.4988021850586,5752.0,7918.0,4294964219.0
2018,11,27,18,24,32,354,-243.47877502441406,,,
2018,11,27,18,24,32,358,-243.52741241455078,,,
2018,11,27,18,24,32,362,-243.49021911621094,,,
2018,11,27,18,24,32,366,-243.69049072265625,,,
2018,11,27,18,24,32,370,-243.7448501586914,5693.0,7938.0,4294964278.0
2018,11,27,18,24,32,374,-243.87359619140625,,,
2018,11,27,18,24,32,378,-243.988037109375,,,
2018,11,27,18,24,32,381,-243.92223358154297,,,
2018,11,27,18,24,32,385,-243.87359619140625,,,
2018,11,27,18,24,32,389,-243.88504028320312,5713.0,7957.0,4294964298.0
2018,11,27,18,24,32,393,-244.05384063720703,,,
2018,11,27,18,24,32,397,-244.13394927978516,,,
2018,11,27,18,24,32,401,-244.1396713256836,,,
2018,11,27,18,24,32,405,-244.22550201416016,,,
2018,11,27,18,24,32,409,-244.21405792236328,5684.0,7820.0,4294964356.0
2018,11,27,18,24,32,413,-244.20833587646484,,,
2018,11,27,18,24,32,417,-244.26555633544922,,,
2018,11,27,18,24,32,420,-244.1110610961914,,,
2018,11,27,18,24,32,424,-244.20833587646484,,,
2018,11,27,18,24,32,428,-244.2169189453125,5693.0,7781.0,4294964337.0
2018,11,27,18,24,32,432,-244.2169189453125,,,
2018,11,27,18,24,32,436,-244.2483901977539,,,
2018,11,27,18,24,32,440,-244.25697326660156,,,
2018,11,27,18,24,32,444,-244.21977996826172,,,
2018,11,27,18,24,32,448,-244.25697326660156,5713.0,7938.0,4294964317.0
2018,11,27,18,24,32,452,-243.99089813232422,,,
2018,11,27,18,24,32,456,-243.93081665039062,,,
2018,11,27,18,24,32,460,-244.07672882080078,,,
2018,11,27,18,24,32,463,-244.1082000732422,,,
2018,11,27,18,24,32,467,-244.0481185913086,5733.0,7918.0,4294964298.0
2018,11,27,18,24,32,471,-244.11964416503906,,,
2018,11,27,18,24,32,475,-244.14825439453125,,,
2018,11,27,18,24,32,479,-244.22550201416016,,,
2018,11,27,18,24,32,483,-244.20833587646484,,,
2018,11,27,18,24,32,487,-244.2626953125,5713.0,7918.0,4294964317.0
2018,11,27,18,24,32,491,-244.35710906982422,,,
2018,11,27,18,24,32,495,-244.2941665649414,,,
2018,11,27,18,24,32,499,-244.16828155517578,,,
2018,11,27,18,24,32,503,-244.25411224365234,,,
2018,11,27,18,24,32,506,-244.13681030273438,5693.0,7977.0,4294964258.0
2018,11,27,18,24,32,510,-244.10247802734375,,,
2018,11,27,18,24,32,514,-244.0023422241211,,,
2018,11,27,18,24,32,518,-244.03667449951172,,,
2018,11,27,18,24,32,522,-244.04525756835938,,,
2018,11,27,18,24,32,526,-243.83926391601562,5713.0,7957.0,4294964258.0
2018,11,27,18,24,32,530,-243.5016632080078,,,
2018,11,27,18,24,32,534,-243.02101135253906,,,
2018,11,27,18,24,32,538,-243.24703216552734,,,
2018,11,27,18,24,32,542,-243.42727661132812,,,
2018,11,27,18,24,32,545,-243.6819076538086,5733.0,7938.0,4294964258.0
2018,11,27,18,24,32,549,-243.8192367553711,,,
2018,11,27,18,24,32,553,-243.85929107666016,,,
2018,11,27,18,24,32,557,-244.06814575195312,,,
2018,11,27,18,24,32,561,-244.20547485351562,,,
2018,11,27,18,24,32,565,-244.1082000732422,5693.0,8016.0,4294964298.0
2018,11,27,18,24,32,569,-244.4629669189453,,,
2018,11,27,18,24,32,573,-244.57454681396484,,,
2018,11,27,18,24,32,577,-244.57168579101562,,,
2018,11,27,18,24,32,581,-244.26555633544922,,,
2018,11,27,18,24,32,585,-244.36569213867188,5644.0,7938.0,4294964356.0
2018,11,27,18,24,32,588,-244.3857192993164,,,
2018,11,27,18,24,32,592,-244.51446533203125,,,
2018,11,27,18,24,32,596,-244.58026885986328,,,
2018,11,27,18,24,32,600,-244.60601806640625,,,
2018,11,27,18,24,32,604,-244.6146011352539,5605.0,7840.0,4294964337.0
2018,11,27,18,24,32,608,-244.4000244140625,,,
2018,11,27,18,24,32,612,-244.4000244140625,,,
2018,11,27,18,24,32,616,-244.44580078125,,,
2018,11,27,18,24,32,620,-244.5545196533203,,,
2018,11,27,18,24,32,624,-244.50302124023438,5644.0,7800.0,4294964278.0
2018,11,27,18,24,32,628,-244.51732635498047,,,
2018,11,27,18,24,32,631,-244.6432113647461,,,
2018,11,27,18,24,32,635,-244.63176727294922,,,
2018,11,27,18,24,32,639,-244.5058822631836,,,
2018,11,27,18,24,32,643,-243.65901947021484,5625.0,7800.0,4294964337.0
2018,11,27,18,24,32,647,-241.52183532714844,,,
2018,11,27,18,24,32,651,-239.1500473022461,,,
2018,11,27,18,24,32,655,-236.3605499267578,,,
2018,11,27,18,24,32,659,-233.02459716796875,,,
2018,11,27,18,24,32,663,-226.78470611572266,5586.0,7820.0,4294964396.0
2018,11,27,18,24,32,667,-223.95801544189453,,,
2018,11,27,18,24,32,670,-227.13661193847656,,,
2018,11,27,18,24,32,674,-233.92868041992188,,,
2018,11,27,18,24,32,678,-239.12715911865234,,,
2018,11,27,18,24,32,682,-243.0095672607422,,,
2018,11,27,18,24,32,686,-249.2523193359375,,,
2018,11,27,18,24,32,690,-250.02479553222656,,,
2018,11,27,18,24,32,694,-247.3125457763672,,,
2018,11,27,18,24,32,698,-244.5058822631836,,,
2018,11,27,18,24,32,702,-243.80207061767578,,,
2018,11,27,18,24,32,706,-243.53313446044922,,,
2018,11,27,18,24,32,710,-243.62754821777344,,,
2018,11,27,18,24,32,713,-244.0481185913086,,,
2018,11,27,18,24,32,717,-244.2169189453125,,,
2018,11,27,18,24,32,721,-244.1082000732422,7859.0,4294964464.0,5488.0
2018,11,27,18,24,32,725,-244.06814575195312,,,
2018,11,27,18,24,32,729,-244.10247802734375,,,
2018,11,27,18,24,32,733,-244.0195083618164,,,
2018,11,27,18,24,32,737,-244.02523040771484,,,
2018,11,27,18,24,32,741,-243.93081665039062,7693.0,4294964562.0,5262.0
2018,11,27,18,24,32,745,-243.77918243408203,,,
2018,11,27,18,24,32,749,-243.82781982421875,,,
2018,11,27,18,24,32,753,-243.61038208007812,,,
2018,11,27,18,24,32,756,-243.67046356201172,,,
2018,11,27,18,24,32,760,-243.61324310302734,7653.0,4294964278.0,5605.0
2018,11,27,18,24,32,764,-243.56746673583984,,,
2018,11,27,18,24,32,768,-243.42727661132812,,,
2018,11,27,18,24,32,772,-243.41297149658203,,,
2018,11,27,18,24,32,776,-243.16120147705078,,,
2018,11,27,18,24,32,780,-243.10684204101562,7938.0,4294964621.0,5684.0
2018,11,27,18,24,32,784,-243.1325912475586,,,
2018,11,27,18,24,32,788,-242.88654327392578,,,
2018,11,27,18,24,32,792,-242.7835464477539,,,
2018,11,27,18,24,32,795,-242.7234649658203,,,
2018,11,27,18,24,32,799,-242.5832748413086,7820.0,4294964523.0,5488.0
2018,11,27,18,24,32,803,-242.52605438232422,,,
2018,11,27,18,24,32,807,-242.37728118896484,,,
2018,11,27,18,24,32,811,-242.2313690185547,,,
2018,11,27,18,24,32,815,-241.99390411376953,,,
2018,11,27,18,24,32,819,-241.8994903564453,7761.0,4294964582.0,5448.0
2018,11,27,18,24,32,823,-241.8994903564453,,,
2018,11,27,18,24,32,827,-241.78504943847656,,,
2018,11,27,18,24,32,831,-241.67919158935547,,,
2018,11,27,18,24,32,835,-241.82796478271484,,,
2018,11,27,18,24,32,838,-242.18273162841797,7800.0,4294964543.0,5350.0
2018,11,27,18,24,32,842,-241.8966293334961,,,
2018,11,27,18,24,32,846,-241.78791046142578,,,
2018,11,27,18,24,32,850,-241.64199829101562,,,
2018,11,27,18,24,32,854,-241.6677474975586,,,
2018,11,27,18,24,32,858,-241.7278289794922,7575.0,4294964699.0,5929.0
2018,11,27,18,24,32,862,-241.71066284179688,,,
2018,11,27,18,24,32,866,-241.83368682861328,,,
2018,11,27,18,24,32,870,-242.01393127441406,,,
2018,11,27,18,24,32,874,-242.12265014648438,,,
2018,11,27,18,24,32,878,-242.31433868408203,8094.0,4294964984.0,6066.0
2018,11,27,18,24,32,881,-242.52605438232422,,,
2018,11,27,18,24,32,885,-242.59185791015625,,,
2018,11,27,18,24,32,889,-242.8722381591797,,,
2018,11,27,18,24,32,893,-242.8579330444336,,,
2018,11,27,18,24,32,897,-242.94090270996094,8741.0,4294964337.0,6085.0
2018,11,27,18,24,32,901,-242.57183074951172,,,
2018,11,27,18,24,32,905,-242.8150177001953,,,
2018,11,27,18,24,32,909,-242.99240112304688,,,
2018,11,27,18,24,32,913,-243.12973022460938,,,
2018,11,27,18,24,32,917,-243.12686920166016,9221.0,4294964239.0,6105.0
2018,11,27,18,24,32,920,-243.11256408691406,,,
2018,11,27,18,24,32,924,-243.02387237548828,,,
2018,11,27,18,24,32,928,-243.1468963623047,,,
2018,11,27,18,24,32,932,-243.01815032958984,,,
2018,11,27,18,24,32,936,-242.92945861816406,8437.0,4294964454.0,6134.0
2018,11,27,18,24,32,940,-242.98954010009766,,,
2018,11,27,18,24,32,944,-243.03531646728516,,,
2018,11,27,18,24,32,948,-243.00384521484375,,,
2018,11,27,18,24,32,952,-242.89512634277344,,,
2018,11,27,18,24,32,956,-242.9180145263672,8075.0,4294964680.0,6046.0
2018,11,27,18,24,32,960,-243.06106567382812,,,
2018,11,27,18,24,32,963,-242.98095703125,,,
2018,11,27,18,24,32,967,-243.02959442138672,,,
2018,11,27,18,24,32,971,-243.12686920166016,,,
2018,11,27,18,24,32,975,-242.97523498535156,7938.0,4294964621.0,6046.0
2018,11,27,18,24,32,979,-243.11256408691406,,,
2018,11,27,18,24,32,983,-243.11256408691406,,,
2018,11,27,18,24,32,987,-243.0124282836914,,,
2018,11,27,18,24,32,991,-243.08395385742188,,,
2018,11,27,18,24,32,995,-243.12973022460938,7996.0,4294964660.0,5909.0
2018,11,27,18,24,32,999,-243.10970306396484,,,
2018,11,27,18,24,33,3,-243.1640625,,,
2018,11,27,18,24,33,6,-243.07537078857422,,,
2018,11,27,18,24,33,10,-243.00670623779297,,,
2018,11,27,18,24,33,14,-243.09539794921875,8134.0,4294964503.0,5791.0
2018,11,27,18,24,33,18,-243.1926727294922,,,
2018,11,27,18,24,33,22,-243.15261840820312,,,
2018,11,27,18,24,33,26,-243.3757781982422,,,
2018,11,27,18,24,33,30,-243.3929443359375,,,
2018,11,27,18,24,33,34,-243.39580535888672,8241.0,4294964601.0,5693.0
2018,11,27,18,24,33,38,-243.30997467041016,,,
2018,11,27,18,24,33,42,-243.2384490966797,,,
2018,11,27,18,24,33,45,-243.13831329345703,,,
2018,11,27,18,24,33,49,-243.18695068359375,,,
2018,11,27,18,24,33,53,-243.18408966064453,8261.0,4294964621.0,5664.0
2018,11,27,18,24,33,57,-243.24703216552734,,,
2018,11,27,18,24,33,61,-243.3614730834961,,,
2018,11,27,18,24,33,65,-243.3643341064453,,,
2018,11,27,18,24,33,69,-243.52169036865234,,,
2018,11,27,18,24,33,73,-243.4530258178711,8261.0,4294964699.0,5625.0
2018,11,27,18,24,33,77,-243.4215545654297,,,
2018,11,27,18,24,33,81,-243.67618560791016,,,
2018,11,27,18,24,33,85,-243.6046600341797,,,
2018,11,27,18,24,33,88,-243.66188049316406,,,
2018,11,27,18,24,33,92,-243.71623992919922,8036.0,4294964739.0,5644.0
2018,11,27,18,24,33,96,-243.7734603881836,,,
2018,11,27,18,24,33,100,-243.80779266357422,,,
2018,11,27,18,24,33,104,-243.72482299804688,,,
2018,11,27,18,24,33,108,-243.80207061767578,,,
2018,11,27,18,24,33,112,-243.8335418701172,7879.0,4294964837.0,5684.0
2018,11,27,18,24,33,116,-243.96228790283203,,,
2018,11,27,18,24,33,120,-244.1082000732422,,,
2018,11,27,18,24,33,124,-244.0509796142578,,,
2018,11,27,18,24,33,128,-244.12822723388672,,,
2018,11,27,18,24,33,131,-243.988037109375,7761.0,4294964660.0,5586.0
2018,11,27,18,24,33,135,-244.0338134765625,,,
2018,11,27,18,24,33,139,-244.12250518798828,,,
2018,11,27,18,24,33,143,-244.16828155517578,,,
2018,11,27,18,24,33,147,-244.15969848632812,,,
2018,11,27,18,24,33,151,-244.3084716796875,7820.0,4294964562.0,5644.0
2018,11,27,18,24,33,155,-244.17972564697266,,,
2018,11,27,18,24,33,159,-243.89934539794922,,,
2018,11,27,18,24,33,163,-244.0338134765625,,,
2018,11,27,18,24,33,167,-244.2026138305664,,,
2018,11,27,18,24,33,170,-244.11964416503906,7996.0,4294964582.0,5625.0
2018,11,27,18,24,33,174,-244.17972564697266,,,
2018,11,27,18,24,33,178,-244.21405792236328,,,
2018,11,27,18,24,33,182,-244.2626953125,,,
2018,11,27,18,24,33,186,-244.2770004272461,,,
2018,11,27,18,24,33,190,-244.19403076171875,7957.0,4294964660.0,5605.0
2018,11,27,18,24,33,194,-244.09961700439453,,,
2018,11,27,18,24,33,198,-244.2913055419922,,,
2018,11,27,18,24,33,202,-244.29988861083984,,,
2018,11,27,18,24,33,206,-244.28844451904297,,,
2018,11,27,18,24,33,210,-244.27127838134766,8016.0,4294964621.0,5713.0
2018,11,27,18,24,33,213,-244.26555633544922,,,
2018,11,27,18,24,33,217,-244.26841735839844,,,
2018,11,27,18,24,33,221,-244.42291259765625,,,
2018,11,27,18,24,33,225,-244.63462829589844,,,
2018,11,27,18,24,33,229,-244.57168579101562,7840.0,4294964562.0,5968.0
2018,11,27,18,24,33,233,-244.44580078125,,,
2018,11,27,18,24,33,237,-244.54879760742188,,,
2018,11,27,18,24,33,241,-244.37427520751953,,,
2018,11,27,18,24,33,245,-244.23980712890625,,,
2018,11,27,18,24,33,249,-244.14825439453125,7800.0,4294964464.0,6085.0
2018,11,27,18,24,33,253,-244.16255950927734,,,
2018,11,27,18,24,33,256,-244.1425323486328,,,
2018,11,27,18,24,33,260,-243.99375915527344,,,
2018,11,27,18,24,33,264,-243.73626708984375,,,
2018,11,27,18,24,33,268,-243.3185577392578,7820.0,4294964454.0,5929.0
2018,11,27,18,24,33,272,-243.43013763427734,,,
2018,11,27,18,24,33,276,-243.6389923095703,,,
2018,11,27,18,24,33,280,-243.76773834228516,,,
2018,11,27,18,24,33,284,-243.5903549194336,,,
2018,11,27,18,24,33,288,-243.97945404052734,7820.0,4294964396.0,5831.0
2018,11,27,18,24,33,292,-244.171142578125,,,
2018,11,27,18,24,33,295,-244.2798614501953,,,
2018,11,27,18,24,33,299,-244.34566497802734,,,
2018,11,27,18,24,33,303,-244.42005157470703,,,
2018,11,27,18,24,33,307,-244.72332000732422,7781.0,4294964415.0,5811.0
2018,11,27,18,24,33,311,-245.09239196777344,,,
2018,11,27,18,24,33,315,-245.08380889892578,,,
2018,11,27,18,24,33,319,-244.9779510498047,,,
2018,11,27,18,24,33,323,-244.83203887939453,,,
2018,11,27,18,24,33,327,-245.0695037841797,7693.0,4294964454.0,5968.0
2018,11,27,18,24,33,331,-244.9665069580078,,,
2018,11,27,18,24,33,335,-244.9178695678711,,,
2018,11,27,18,24,33,338,-244.8406219482422,,,
2018,11,27,18,24,33,342,-244.90928649902344,,,
2018,11,27,18,24,33,346,-244.71759796142578,7761.0,4294964396.0,5850.0
2018,11,27,18,24,33,350,-244.68612670898438,,,
2018,11,27,18,24,33,354,-244.720458984375,,,
2018,11,27,18,24,33,358,-244.5659637451172,,,
2018,11,27,18,24,33,362,-244.71759796142578,,,
2018,11,27,18,24,33,366,-244.66896057128906,7712.0,4294964200.0,5811.0
2018,11,27,18,24,33,370,-244.68040466308594,,,
2018,11,27,18,24,33,374,-244.0938949584961,,,
2018,11,27,18,24,33,378,-242.50030517578125,,,
2018,11,27,18,24,33,381,-240.16571044921875,,,
2018,11,27,18,24,33,385,-237.02716827392578,7653.0,4294964239.0,5713.0
2018,11,27,18,24,33,389,-232.91873931884766,,,
2018,11,27,18,24,33,393,-227.84900665283203,,,
2018,11,27,18,24,33,397,-223.38008880615234,,,
2018,11,27,18,24,33,401,-223.53172302246094,,,
2018,11,27,18,24,33,405,-229.08782958984375,7742.0,4294964337.0,5693.0
2018,11,27,18,24,33,409,-236.27471923828125,,,
2018,11,27,18,24,33,413,-241.74213409423828,,,
2018,11,27,18,24,33,417,-247.3297119140625,,,
2018,11,27,18,24,33,420,-251.85012817382812,,,
2018,11,27,18,24,33,424,-250.43678283691406,7977.0,4294964200.0,5752.0
2018,11,27,18,24,33,428,-247.8189468383789,,,
2018,11,27,18,24,33,432,-245.38135528564453,,,
2018,11,27,18,24,33,436,-244.35138702392578,,,
2018,11,27,18,24,33,440,-243.79920959472656,,,
2018,11,27,18,24,33,444,-244.17972564697266,8036.0,4294964415.0,5625.0
2018,11,27,18,24,33,448,-244.15111541748047,,,
2018,11,27,18,24,33,452,-244.12250518798828,,,
2018,11,27,18,24,33,456,-244.05670166015625,,,
2018,11,27,18,24,33,460,-244.15969848632812,,,
2018,11,27,18,24,33,463,-243.92223358154297,7742.0,4294964435.0,5350.0
2018,11,27,18,24,33,467,-243.85643005371094,,,
2018,11,27,18,24,33,471,-243.95084381103516,,,
2018,11,27,18,24,33,475,-244.13108825683594,,,
2018,11,27,18,24,33,479,-243.80207061767578,,,
2018,11,27,18,24,33,483,-243.70193481445312,7879.0,4294964298.0,5586.0
2018,11,27,18,24,33,487,-243.5474395751953,,,
2018,11,27,18,24,33,491,-243.4701919555664,,,
2018,11,27,18,24,33,495,-243.438720703125,,,
2018,11,27,18,24,33,499,-243.44158172607422,,,
2018,11,27,18,24,33,503,-243.32141876220703,7977.0,4294964219.0,5791.0
2018,11,27,18,24,33,506,-243.2699203491211,,,
2018,11,27,18,24,33,510,-243.23558807373047,,,
2018,11,27,18,24,33,514,-242.98954010009766,,,
2018,11,27,18,24,33,518,-242.99240112304688,,,
2018,11,27,18,24,33,522,-242.76065826416016,7673.0,4294964180.0,6027.0
2018,11,27,18,24,33,526,-242.5832748413086,,,
2018,11,27,18,24,33,530,-242.45738983154297,,,
2018,11,27,18,24,33,534,-242.41161346435547,,,
2018,11,27,18,24,33,538,-242.1712875366211,,,
2018,11,27,18,24,33,542,-242.09976196289062,7614.0,4294963994.0,6134.0
2018,11,27,18,24,33,545,-241.97959899902344,,,
2018,11,27,18,24,33,549,-241.9424057006836,,,
2018,11,27,18,24,33,553,-241.5332794189453,,,
2018,11,27,18,24,33,557,-241.50466918945312,,,
2018,11,27,18,24,33,561,-241.5447235107422,7761.0,4294964200.0,6085.0
2018,11,27,18,24,33,565,-241.41311645507812,,,
2018,11,27,18,24,33,569,-241.30725860595703,,,
2018,11,27,18,24,33,573,-241.29009246826172,,,
2018,11,27,18,24,33,577,-241.27864837646484,,,
2018,11,27,18,24,33,581,-241.05548858642578,7497.0,4294964337.0,6007.0
2018,11,27,18,24,33,585,-240.87810516357422,,,
2018,11,27,18,24,33,588,-241.01829528808594,,,
2018,11,27,18,24,33,592,-240.93246459960938,,,
2018,11,27,18,24,33,596,-241.06979370117188,,,
2018,11,27,18,24,33,600,-241.16992950439453,7457.0,4294964415.0,6066.0
2018,11,27,18,24,33,604,-241.45030975341797,,,
2018,11,27,18,24,33,608,-241.82796478271484,,,
2018,11,27,18,24,33,612,-241.9424057006836,,,
2018,11,27,18,24,33,616,-242.05684661865234,,,
2018,11,27,18,24,33,620,-242.15126037597656,7536.0,4294964356.0,6046.0
2018,11,27,18,24,33,624,-242.22564697265625,,,
2018,11,27,18,24,33,628,-242.47169494628906,,,
2018,11,27,18,24,33,631,-242.76351928710938,,,
2018,11,27,18,24,33,635,-243.08109283447266,,,
2018,11,27,18,24,33,639,-243.09253692626953,7575.0,4294964464.0,5850.0
2018,11,27,18,24,33,643,-243.24703216552734,,,
2018,11,27,18,24,33,647,-243.33858489990234,,,
2018,11,27,18,24,33,651,-243.44730377197266,,,
2018,11,27,18,24,33,655,-243.53599548339844,,,
2018,11,27,18,24,33,659,-243.39580535888672,7693.0,4294964484.0,6615.0
2018,11,27,18,24,33,663,-243.43299865722656,,,
2018,11,27,18,24,33,667,-243.40152740478516,,,
2018,11,27,18,24,33,670,-243.51882934570312,,,
2018,11,27,18,24,33,674,-243.35002899169922,,,
2018,11,27,18,24,33,678,-243.41583251953125,8075.0,4294964866.0,6193.0
2018,11,27,18,24,33,682,-243.46446990966797,,,
2018,11,27,18,24,33,686,-243.48163604736328,,,
2018,11,27,18,24,33,690,-243.62468719482422,,,
2018,11,27,18,24,33,694,-243.72482299804688,,,
2018,11,27,18,24,33,698,-243.87645721435547,,,
2018,11,27,18,24,33,702,-243.84212493896484,,,
2018,11,27,18,24,33,706,-243.93367767333984,,,
2018,11,27,18,24,33,710,-244.09103393554688,,,
2018,11,27,18,24,33,713,-244.13394927978516,,,
2018,11,27,18,24,33,717,-244.2340850830078,7859.0,4294964984.0,5987.0
2018,11,27,18,24,33,721,-244.05956268310547,,,
2018,11,27,18,24,33,725,-244.06814575195312,,,
2018,11,27,18,24,33,729,-244.02809143066406,,,
2018,11,27,18,24,33,733,-243.9737319946289,,,
2018,11,27,18,24,33,737,-243.82781982421875,7614.0,4294965101.0,6311.0
2018,11,27,18,24,33,741,-243.67618560791016,,,
2018,11,27,18,24,33,745,-243.62754821777344,,,
2018,11,27,18,24,33,749,-243.58749389648438,,,
2018,11,27,18,24,33,753,-243.5903549194336,,,
2018,11,27,18,24,33,756,-243.49308013916016,7840.0,4294964944.0,6536.0
2018,11,27,18,24,33,760,-243.5474395751953,,,
2018,11,27,18,24,33,764,-243.47591400146484,,,
2018,11,27,18,24,33,768,-243.51882934570312,,,
2018,11,27,18,24,33,772,-243.5903549194336,,,
2018,11,27,18,24,33,776,-243.61324310302734,7977.0,4294964984.0,6311.0
2018,11,27,18,24,33,780,-243.60179901123047,,,
2018,11,27,18,24,33,784,-243.7906265258789,,,
2018,11,27,18,24,33,788,-243.8507080078125,,,
2018,11,27,18,24,33,792,-243.82495880126953,,,
2018,11,27,18,24,33,795,-243.81351470947266,7653.0,4294965003.0,6066.0
2018,11,27,18,24,33,799,-243.85356903076172,,,
2018,11,27,18,24,33,803,-243.7276840209961,,,
2018,11,27,18,24,33,807,-243.8220977783203,,,
2018,11,27,18,24,33,811,-243.80207061767578,,,
2018,11,27,18,24,33,815,-244.10247802734375,7595.0,4294965121.0,5987.0
2018,11,27,18,24,33,819,-244.0023422241211,,,
2018,11,27,18,24,33,823,-243.95084381103516,,,
2018,11,27,18,24,33,827,-244.21977996826172,,,
2018,11,27,18,24,33,831,-244.16542053222656,,,
2018,11,27,18,24,33,835,-244.25983428955078,7653.0,4294965238.0,6046.0
2018,11,27,18,24,33,838,-244.17686462402344,,,
2018,11,27,18,24,33,842,-244.38858032226562,,,
2018,11,27,18,24,33,846,-244.27413940429688,,,
2018,11,27,18,24,33,850,-244.33422088623047,,,
2018,11,27,18,24,33,854,-244.28844451904297,7634.0,4294965268.0,6232.0
2018,11,27,18,24,33,858,-244.10533905029297,,,
2018,11,27,18,24,33,862,-244.18258666992188,,,
2018,11,27,18,24,33,866,-244.171142578125,,,
2018,11,27,18,24,33,870,-244.42005157470703,,,
2018,11,27,18,24,33,874,-244.34566497802734,7800.0,4294965621.0,6350.0
2018,11,27,18,24,33,878,-244.38858032226562,,,
2018,11,27,18,24,33,881,-244.29988861083984,,,
2018,11,27,18,24,33,885,-244.40288543701172,,,
2018,11,27,18,24,33,889,-244.52877044677734,,,
2018,11,27,18,24,33,893,-244.5058822631836,7938.0,4294965483.0,6115.0
2018,11,27,18,24,33,897,-244.5831298828125,,,
2018,11,27,18,24,33,901,-244.5058822631836,,,
2018,11,27,18,24,33,905,-244.32849884033203,,,
2018,11,27,18,24,33,909,-244.44580078125,,,
2018,11,27,18,24,33,913,-244.60887908935547,7879.0,4294965385.0,6066.0
2018,11,27,18,24,33,917,-244.6117401123047,,,
2018,11,27,18,24,33,920,-244.5230484008789,,,
2018,11,27,18,24,33,924,-244.54879760742188,,,
2018,11,27,18,24,33,928,-244.40574645996094,,,
2018,11,27,18,24,33,932,-244.6889877319336,7938.0,4294965689.0,6027.0
2018,11,27,18,24,33,936,-244.56024169921875,,,
2018,11,27,18,24,33,940,-244.59171295166016,,,
2018,11,27,18,24,33,944,-244.52877044677734,,,
2018,11,27,18,24,33,948,-244.4171905517578,,,
2018,11,27,18,24,33,952,-244.4772720336914,7898.0,4294965523.0,6105.0
2018,11,27,18,24,33,956,-244.39716339111328,,,
2018,11,27,18,24,33,960,-244.31133270263672,,,
2018,11,27,18,24,33,963,-244.27127838134766,,,
2018,11,27,18,24,33,967,-244.0938949584961,,,
2018,11,27,18,24,33,971,-244.1854476928711,7820.0,4294965581.0,6154.0
2018,11,27,18,24,33,975,-244.0338134765625,,,
2018,11,27,18,24,33,979,-244.04525756835938,,,
2018,11,27,18,24,33,983,-243.76773834228516,,,
2018,11,27,18,24,33,987,-243.28994750976562,,,
2018,11,27,18,24,33,991,-243.23272705078125,7693.0,4294965405.0,6105.0
2018,11,27,18,24,33,995,-243.4673309326172,,,
2018,11,27,18,24,33,999,-243.3786392211914,,,
2018,11,27,18,24,34,3,-243.4701919555664,,,
2018,11,27,18,24,34,6,-243.75057220458984,,,
2018,11,27,18,24,34,10,-244.02236938476562,7781.0,4294965444.0,6213.0
2018,11,27,18,24,34,14,-244.11678314208984,,,
2018,11,27,18,24,34,18,-244.0652847290039,,,
2018,11,27,18,24,34,22,-244.4629669189453,,,
2018,11,27,18,24,34,26,-244.66609954833984,,,
2018,11,27,18,24,34,30,-244.537353515625,8075.0,4294965601.0,6174.0
2018,11,27,18,24,34,34,-244.62604522705078,,,
2018,11,27,18,24,34,38,-244.720458984375,,,
2018,11,27,18,24,34,42,-244.64035034179688,,,
2018,11,27,18,24,34,45,-244.71759796142578,,,
2018,11,27,18,24,34,49,-244.9350357055664,8094.0,4294965709.0,5968.0
2018,11,27,18,24,34,53,-245.06378173828125,,,
2018,11,27,18,24,34,57,-244.94075775146484,,,
2018,11,27,18,24,34,61,-244.86351013183594,,,
2018,11,27,18,24,34,65,-244.74048614501953,,,
2018,11,27,18,24,34,69,-244.81487274169922,8163.0,4294965885.0,5664.0
2018,11,27,18,24,34,73,-244.85492706298828,,,
2018,11,27,18,24,34,77,-245.00370025634766,,,
2018,11,27,18,24,34,81,-245.14102935791016,,,
2018,11,27,18,24,34,85,-244.76337432861328,,,
2018,11,27,18,24,34,88,-244.58599090576172,8241.0,4294965885.0,5527.0
2018,11,27,18,24,34,92,-243.58177185058594,,,
2018,11,27,18,24,34,96,-241.52469635009766,,,
2018,11,27,18,24,34,100,-238.7237548828125,,,
2018,11,27,18,24,34,104,-234.89856719970703,,,
2018,11,27,18,24,34,108,-231.0333251953125,8339.0,4294966091.0,5390.0
2018,11,27,18,24,34,112,-225.86345672607422,,,
2018,11,27,18,24,34,116,-224.47872161865234,,,
2018,11,27,18,24,34,120,-227.42557525634766,,,
2018,11,27,18,24,34,124,-233.78276824951172,,,
2018,11,27,18,24,34,128,-240.62061309814453,8516.0,4294966062.0,5468.0
2018,11,27,18,24,34,131,-244.99797821044922,,,
2018,11,27,18,24,34,135,-251.43814086914062,,,
2018,11,27,18,24,34,139,-253.21483612060547,,,
2018,11,27,18,24,34,143,-251.22356414794922,,,
2018,11,27,18,24,34,147,-248.76022338867188,9065.0,4294965983.0,5625.0
2018,11,27,18,24,34,151,-246.4141845703125,,,
2018,11,27,18,24,34,155,-245.3298568725586,,,
2018,11,27,18,24,34,159,-244.98939514160156,,,
2018,11,27,18,24,34,163,-244.92931365966797,,,
2018,11,27,18,24,34,167,-244.82345581054688,9261.0,4294966022.0,5429.0
2018,11,27,18,24,34,170,-244.7834014892578,,,
2018,11,27,18,24,34,174,-244.7347640991211,,,
2018,11,27,18,24,34,178,-244.67754364013672,,,
2018,11,27,18,24,34,182,-243.7763214111328,,,
2018,11,27,18,24,34,186,-244.13394927978516,9163.0,4294966091.0,5203.0
2018,11,27,18,24,34,190,-244.1396713256836,,,
2018,11,27,18,24,34,194,-244.0967559814453,,,
2018,11,27,18,24,34,198,-243.9565658569336,,,
2018,11,27,18,24,34,202,-244.01378631591797,,,
2018,11,27,18,24,34,206,-244.1539764404297,9123.0,4294965964.0,5086.0
2018,11,27,18,24,34,210,-243.77918243408203,,,
2018,11,27,18,24,34,213,-243.6847686767578,,,
2018,11,27,18,24,34,217,-243.70193481445312,,,
2018,11,27,18,24,34,221,-243.6361312866211,,,
2018,11,27,18,24,34,225,-243.55030059814453,8780.0,4294966228.0,5184.0
2018,11,27,18,24,34,229,-243.51882934570312,,,
2018,11,27,18,24,34,233,-243.4530258178711,,,
2018,11,27,18,24,34,237,-243.32714080810547,,,
2018,11,27,18,24,34,241,-242.9351806640625,,,
2018,11,27,18,24,34,245,-242.42877960205078,8496.0,4294966209.0,5164.0
2018,11,27,18,24,34,249,-242.20848083496094,,,
2018,11,27,18,24,34,253,-242.24567413330078,,,
2018,11,27,18,24,34,256,-242.45738983154297,,,
2018,11,27,18,24,34,260,-242.25997924804688,,,
2018,11,27,18,24,34,264,-242.20848083496094,8584.0,4294966042.0,5164.0
2018,11,27,18,24,34,268,-242.02537536621094,,,
2018,11,27,18,24,34,272,-241.8680191040039,,,
2018,11,27,18,24,34,276,-241.87374114990234,,,
2018,11,27,18,24,34,280,-241.67633056640625,,,
2018,11,27,18,24,34,284,-241.59622192382812,8565.0,4294966022.0,5282.0
2018,11,27,18,24,34,288,-241.69349670410156,,,
2018,11,27,18,24,34,292,-241.607666015625,,,
2018,11,27,18,24,34,295,-241.4073944091797,,,
2018,11,27,18,24,34,299,-241.46747589111328,,,
2018,11,27,18,24,34,303,-241.38450622558594,8437.0,4294966062.0,5164.0
2018,11,27,18,24,34,307,-241.31298065185547,,,
2018,11,27,18,24,34,311,-241.0125732421875,,,
2018,11,27,18,24,34,315,-241.48178100585938,,,
2018,11,27,18,24,34,319,-241.6362762451172,,,
2018,11,27,18,24,34,323,-241.70207977294922,8545.0,4294966042.0,5125.0
2018,11,27,18,24,34,327,-241.7736053466797,,,
2018,11,27,18,24,34,331,-241.96529388427734,,,
2018,11,27,18,24,34,335,-242.42019653320312,,,
2018,11,27,18,24,34,338,-242.3086166381836,,,
2018,11,27,18,24,34,342,-242.16270446777344,8741.0,4294965964.0,5203.0
2018,11,27,18,24,34,346,-243.18981170654297,,,
2018,11,27,18,24,34,350,-243.12400817871094,,,
2018,11,27,18,24,34,354,-243.40438842773438,,,
2018,11,27,18,24,34,358,-243.30425262451172,,,
2018,11,27,18,24,34,362,-243.16978454589844,8820.0,4294966111.0,5066.0
2018,11,27,18,24,34,366,-243.75343322753906,,,
2018,11,27,18,24,34,370,-244.05384063720703,,,
2018,11,27,18,24,34,374,-243.70193481445312,,,
2018,11,27,18,24,34,378,-243.81351470947266,,,
2018,11,27,18,24,34,381,-244.2455291748047,8722.0,4294966111.0,5086.0
2018,11,27,18,24,34,385,-243.896484375,,,
2018,11,27,18,24,34,389,-244.0509796142578,,,
2018,11,27,18,24,34,393,-243.87645721435547,,,
2018,11,27,18,24,34,397,-243.94512176513672,,,
2018,11,27,18,24,34,401,-244.11678314208984,8584.0,4294966042.0,4880.0
2018,11,27,18,24,34,405,-244.3227767944336,,,
2018,11,27,18,24,34,409,-244.4171905517578,,,
2018,11,27,18,24,34,413,-244.58599090576172,,,
2018,11,27,18,24,34,417,-244.84634399414062,,,
2018,11,27,18,24,34,420,-244.51446533203125,8516.0,4294966091.0,4968.0
2018,11,27,18,24,34,424,-244.4143295288086,,,
2018,11,27,18,24,34,428,-244.50302124023438,,,
2018,11,27,18,24,34,432,-244.9207305908203,,,
2018,11,27,18,24,34,436,-244.5659637451172,,,
2018,11,27,18,24,34,440,-244.537353515625,8565.0,4294966267.0,4929.0
2018,11,27,18,24,34,444,-244.6889877319336,,,
2018,11,27,18,24,34,448,-244.60887908935547,,,
2018,11,27,18,24,34,452,-244.98653411865234,,,
2018,11,27,18,24,34,456,-244.66896057128906,,,
2018,11,27,18,24,34,460,-244.25125122070312,8663.0,4294966385.0,4909.0
2018,11,27,18,24,34,463,-244.720458984375,,,
2018,11,27,18,24,34,467,-244.42005157470703,,,
2018,11,27,18,24,34,471,-244.354248046875,,,
2018,11,27,18,24,34,475,-244.3828582763672,,,
2018,11,27,18,24,34,479,-244.2455291748047,8624.0,4294966189.0,5086.0
2018,11,27,18,24,34,483,-244.354248046875,,,
2018,11,27,18,24,34,487,-244.33422088623047,,,
2018,11,27,18,24,34,491,-244.50016021728516,,,
2018,11,27,18,24,34,495,-244.28844451904297,,,
2018,11,27,18,24,34,499,-244.35138702392578,8545.0,4294966267.0,5086.0
2018,11,27,18,24,34,503,-244.37427520751953,,,
2018,11,27,18,24,34,506,-244.32849884033203,,,
2018,11,27,18,24,34,510,-244.39144134521484,,,
2018,11,27,18,24,34,514,-244.2798614501953,,,
2018,11,27,18,24,34,518,-244.07958984375,8565.0,4294966189.0,5086.0
2018,11,27,18,24,34,522,-243.94798278808594,,,
2018,11,27,18,24,34,526,-244.537353515625,,,
2018,11,27,18,24,34,530,-244.4915771484375,,,
2018,11,27,18,24,34,534,-244.35710906982422,,,
2018,11,27,18,24,34,538,-244.27413940429688,8682.0,4294966169.0,4988.0
2018,11,27,18,24,34,542,-244.54593658447266,,,
2018,11,27,18,24,34,545,-244.54593658447266,,,
2018,11,27,18,24,34,549,-244.56024169921875,,,
2018,11,27,18,24,34,553,-244.40288543701172,,,
2018,11,27,18,24,34,557,-244.5545196533203,8702.0,4294966189.0,4860.0
2018,11,27,18,24,34,561,-244.65465545654297,,,
2018,11,27,18,24,34,565,-244.89212036132812,,,
2018,11,27,18,24,34,569,-244.5659637451172,,,
2018,11,27,18,24,34,573,-244.40288543701172,,,
2018,11,27,18,24,34,577,-244.63748931884766,8663.0,4294966130.0,4860.0
2018,11,27,18,24,34,581,-245.06092071533203,,,
2018,11,27,18,24,34,585,-244.86923217773438,,,
2018,11,27,18,24,34,588,-244.7948455810547,,,
2018,11,27,18,24,34,592,-244.6432113647461,,,
2018,11,27,18,24,34,596,-244.81201171875,8682.0,4294966081.0,4860.0
2018,11,27,18,24,34,600,-244.91214752197266,,,
2018,11,27,18,24,34,604,-244.68040466308594,,,
2018,11,27,18,24,34,608,-245.01800537109375,,,
2018,11,27,18,24,34,612,-245.14102935791016,,,
2018,11,27,18,24,34,616,-245.00370025634766,8741.0,4294966150.0,4860.0
2018,11,27,18,24,34,620,-244.88353729248047,,,
2018,11,27,18,24,34,624,-245.1496124267578,,,
2018,11,27,18,24,34,628,-245.18108367919922,,,
2018,11,27,18,24,34,631,-245.3155517578125,,,
2018,11,27,18,24,34,635,-245.3298568725586,8839.0,4294966003.0,4821.0
2018,11,27,18,24,34,639,-245.2840805053711,,,
2018,11,27,18,24,34,643,-245.00370025634766,,,
2018,11,27,18,24,34,647,-245.04375457763672,,,
2018,11,27,18,24,34,651,-245.03803253173828,,,
2018,11,27,18,24,34,655,-244.9951171875,9065.0,4294966307.0,4821.0
2018,11,27,18,24,34,659,-245.10669708251953,,,
2018,11,27,18,24,34,663,-245.1038360595703,,,
2018,11,27,18,24,34,667,-244.4915771484375,,,
2018,11,27,18,24,34,670,-244.27413940429688,,,
2018,11,27,18,24,34,674,-244.51732635498047,8741.0,4294966062.0,4860.0
2018,11,27,18,24,34,678,-243.896484375,,,
2018,11,27,18,24,34,682,-244.02236938476562,,,
2018,11,27,18,24,34,686,-244.48013305664062,,,
2018,11,27,18,24,34,690,-244.27413940429688,,,
2018,11,27,18,24,34,694,-244.3714141845703,,,
2018,11,27,18,24,34,698,-244.64893341064453,,,
2018,11,27,18,24,34,702,-244.54879760742188,,,
2018,11,27,18,24,34,706,-244.52590942382812,,,
2018,11,27,18,24,34,710,-244.9665069580078,,,
2018,11,27,18,24,34,713,-244.9636459350586,4890.0,8624.0,4294965983.0
2018,11,27,18,24,34,717,-245.03803253173828,,,
2018,11,27,18,24,34,721,-245.15819549560547,,,
2018,11,27,18,24,34,725,-244.86923217773438,,,
2018,11,27,18,24,34,729,-245.24974822998047,,,
2018,11,27,18,24,34,733,-245.3470230102539,4968.0,8663.0,4294966042.0
2018,11,27,18,24,34,737,-245.63884735107422,,,
2018,11,27,18,24,34,741,-245.1953887939453,,,
2018,11,27,18,24,34,745,-245.17250061035156,,,
2018,11,27,18,24,34,749,-245.35846710205078,,,
2018,11,27,18,24,34,753,-245.2554702758789,4988.0,8643.0,4294965944.0
2018,11,27,18,24,34,756,-245.71895599365234,,,
2018,11,27,18,24,34,760,-245.73612213134766,,,
2018,11,27,18,24,34,764,-245.73612213134766,,,
2018,11,27,18,24,34,768,-245.71609497070312,,,
2018,11,27,18,24,34,772,-245.57876586914062,5125.0,8741.0,4294965983.0
2018,11,27,18,24,34,776,-245.41854858398438,,,
2018,11,27,18,24,34,780,-245.49579620361328,,,
2018,11,27,18,24,34,784,-244.41146850585938,,,
2018,11,27,18,24,34,788,-243.02101135253906,,,
2018,11,27,18,24,34,792,-240.23723602294922,5282.0,8986.0,4294966287.0
2018,11,27,18,24,34,795,-237.0929718017578,,,
2018,11,27,18,24,34,799,-233.02459716796875,,,
2018,11,27,18,24,34,803,-228.65867614746094,,,
2018,11,27,18,24,34,807,-226.77326202392578,,,
2018,11,27,18,24,34,811,-229.2795181274414,5243.0,8967.0,4294966091.0
2018,11,27,18,24,34,815,-234.93289947509766,,,
2018,11,27,18,24,34,819,-241.19853973388672,,,
2018,11,27,18,24,34,823,-245.90778350830078,,,
2018,11,27,18,24,34,827,-250.7457733154297,,,
2018,11,27,18,24,34,831,-253.45230102539062,5409.0,8898.0,4294966150.0
2018,11,27,18,24,34,835,-253.52954864501953,,,
2018,11,27,18,24,34,838,-251.4638900756836,,,
2018,11,27,18,24,34,842,-249.12071228027344,,,
2018,11,27,18,24,34,846,-247.30396270751953,,,
2018,11,27,18,24,34,850,-246.38843536376953,5468.0,9065.0,4294966385.0
2018,11,27,18,24,34,854,-245.6188201904297,,,
2018,11,27,18,24,34,858,-245.23258209228516,,,
2018,11,27,18,24,34,862,-244.97509002685547,,,
2018,11,27,18,24,34,866,-244.97509002685547,,,
2018,11,27,18,24,34,870,-244.82059478759766,5752.0,9221.0,4294966610.0
2018,11,27,18,24,34,874,-244.52877044677734,,,
2018,11,27,18,24,34,878,-244.39144134521484,,,
2018,11,27,18,24,34,881,-244.25697326660156,,,
2018,11,27,18,24,34,885,-244.46868896484375,,,
2018,11,27,18,24,34,889,-244.0052032470703,5968.0,9447.0,4294966885.0
2018,11,27,18,24,34,893,-244.0052032470703,,,
2018,11,27,18,24,34,897,-243.7734603881836,,,
2018,11,27,18,24,34,901,-243.804931640625,,,
2018,11,27,18,24,34,905,-243.6990737915039,,,
2018,11,27,18,24,34,909,-243.76773834228516,6174.0,9339.0,4294966728.0
2018,11,27,18,24,34,913,-243.62754821777344,,,
2018,11,27,18,24,34,917,-243.62754821777344,,,
2018,11,27,18,24,34,920,-243.5445785522461,,,
2018,11,27,18,24,34,924,-243.2842254638672,,,
2018,11,27,18,24,34,928,-243.26419830322266,6370.0,9319.0,4294966885.0
2018,11,27,18,24,34,932,-243.0095672607422,,,
2018,11,27,18,24,34,936,-242.78640747070312,,,
2018,11,27,18,24,34,940,-242.87796020507812,,,
2018,11,27,18,24,34,944,-242.77210235595703,,,
2018,11,27,18,24,34,948,-242.73204803466797,6105.0,9221.0,4294966610.0
2018,11,27,18,24,34,952,-242.9523468017578,,,
2018,11,27,18,24,34,956,-242.9208755493164,,,
2018,11,27,18,24,34,960,-242.523193359375,,,
2018,11,27,18,24,34,963,-242.38014221191406,,,
2018,11,27,18,24,34,967,-242.4001693725586,5448.0,8437.0,4294966806.0
2018,11,27,18,24,34,971,-242.29717254638672,,,
2018,11,27,18,24,34,975,-242.14839935302734,,,
2018,11,27,18,24,34,979,-242.01393127441406,,,
2018,11,27,18,24,34,983,-241.70780181884766,,,
2018,11,27,18,24,34,987,-241.69063568115234,5292.0,7918.0,9.0
2018,11,27,18,24,34,991,-241.70780181884766,,,
2018,11,27,18,24,34,995,-241.5904998779297,,,
2018,11,27,18,24,34,999,-241.52469635009766,,,
2018,11,27,18,24,35,3,-241.52469635009766,,,
2018,11,27,18,24,35,6,-241.58477783203125,5125.0,7173.0,323.0
2018,11,27,18,24,35,10,-241.74213409423828,,,
2018,11,27,18,24,35,14,-242.11692810058594,,,
2018,11,27,18,24,35,18,-242.20561981201172,,,
2018,11,27,18,24,35,22,-242.30003356933594,,,
2018,11,27,18,24,35,26,-242.3686981201172,5145.0,6811.0,343.0
2018,11,27,18,24,35,30,-242.66624450683594,,,
2018,11,27,18,24,35,34,-242.84648895263672,,,
2018,11,27,18,24,35,38,-243.06964874267578,,,
2018,11,27,18,24,35,42,-243.25847625732422,,,
2018,11,27,18,24,35,45,-243.39866638183594,5664.0,6938.0,666.0
2018,11,27,18,24,35,49,-243.51882934570312,,,
2018,11,27,18,24,35,53,-243.51882934570312,,,
2018,11,27,18,24,35,57,-243.49021911621094,,,
2018,11,27,18,24,35,61,-243.65615844726562,,,
2018,11,27,18,24,35,65,-243.52741241455078,6448.0,7173.0,607.0
2018,11,27,18,24,35,69,-243.6075210571289,,,
2018,11,27,18,24,35,73,-243.64757537841797,,,
2018,11,27,18,24,35,77,-243.61324310302734,,,
2018,11,27,18,24,35,81,-243.57318878173828,,,
2018,11,27,18,24,35,85,-243.45016479492188,7075.0,7761.0,686.0
2018,11,27,18,24,35,88,-243.53313446044922,,,
2018,11,27,18,24,35,92,-243.5016632080078,,,
2018,11,27,18,24,35,96,-243.56460571289062,,,
2018,11,27,18,24,35,100,-243.6075210571289,,,
2018,11,27,18,24,35,104,-243.61896514892578,7212.0,8359.0,147.0
2018,11,27,18,24,35,108,-243.63327026367188,,,
2018,11,27,18,24,35,112,-243.7419891357422,,,
2018,11,27,18,24,35,116,-243.67046356201172,,,
2018,11,27,18,24,35,120,-243.73626708984375,,,
2018,11,27,18,24,35,124,-243.71910095214844,7595.0,8957.0,4294966973.0
2018,11,27,18,24,35,128,-243.7305450439453,,,
2018,11,27,18,24,35,131,-243.73626708984375,,,
2018,11,27,18,24,35,135,-243.76201629638672,,,
2018,11,27,18,24,35,139,-243.67046356201172,,,
2018,11,27,18,24,35,143,-243.5016632080078,7800.0,8918.0,4294966993.0
2018,11,27,18,24,35,147,-243.39008331298828,,,
2018,11,27,18,24,35,151,-243.37005615234375,,,
2018,11,27,18,24,35,155,-243.49594116210938,,,
2018,11,27,18,24,35,159,-243.43013763427734,,,
2018,11,27,18,24,35,163,-243.38436126708984,7291.0,8261.0,4294966708.0
2018,11,27,18,24,35,167,-243.3786392211914,,,
2018,11,27,18,24,35,170,-243.2699203491211,,,
2018,11,27,18,24,35,174,-243.2727813720703,,,
2018,11,27,18,24,35,178,-243.33572387695312,,,
2018,11,27,18,24,35,182,-243.34430694580078,6673.0,7693.0,4294966571.0
2018,11,27,18,24,35,186,-243.35002899169922,,,
2018,11,27,18,24,35,190,-243.35575103759766,,,
2018,11,27,18,24,35,194,-243.46160888671875,,,
2018,11,27,18,24,35,198,-243.35002899169922,,,
2018,11,27,18,24,35,202,-243.32141876220703,6448.0,7457.0,4294966463.0
2018,11,27,18,24,35,206,-243.63327026367188,,,
2018,11,27,18,24,35,210,-243.55602264404297,,,
2018,11,27,18,24,35,213,-243.67046356201172,,,
2018,11,27,18,24,35,217,-243.72482299804688,,,
2018,11,27,18,24,35,221,-243.72482299804688,6105.0,7310.0,4294966062.0
2018,11,27,18,24,35,225,-243.65615844726562,,,
2018,11,27,18,24,35,229,-243.8678741455078,,,
2018,11,27,18,24,35,233,-243.9107894897461,,,
2018,11,27,18,24,35,237,-243.87645721435547,,,
2018,11,27,18,24,35,241,-244.03953552246094,6350.0,7634.0,4294966150.0
2018,11,27,18,24,35,245,-244.08245086669922,,,
2018,11,27,18,24,35,249,-244.29988861083984,,,
2018,11,27,18,24,35,253,-244.24266815185547,,,
2018,11,27,18,24,35,256,-244.36283111572266,,,
2018,11,27,18,24,35,260,-244.4000244140625,6389.0,7595.0,4294966287.0
2018,11,27,18,24,35,264,-244.31705474853516,,,
2018,11,27,18,24,35,268,-244.6889877319336,,,
2018,11,27,18,24,35,272,-244.9321746826172,,,
2018,11,27,18,24,35,276,-244.80342864990234,,,
2018,11,27,18,24,35,280,-244.79198455810547,6213.0,7193.0,4294966483.0
2018,11,27,18,24,35,284,-244.80056762695312,,,
2018,11,27,18,24,35,288,-244.74048614501953,,,
2018,11,27,18,24,35,292,-244.83776092529297,,,
2018,11,27,18,24,35,295,-244.86637115478516,,,
2018,11,27,18,24,35,299,-244.94647979736328,6174.0,7036.0,4294966463.0
2018,11,27,18,24,35,303,-244.83203887939453,,,
2018,11,27,18,24,35,307,-244.89498138427734,,,
2018,11,27,18,24,35,311,-244.8406219482422,,,
2018,11,27,18,24,35,315,-244.75765228271484,,,
2018,11,27,18,24,35,319,-244.78912353515625,6272.0,7320.0,4294966346.0
2018,11,27,18,24,35,323,-244.89212036132812,,,
2018,11,27,18,24,35,327,-244.58599090576172,,,
2018,11,27,18,24,35,331,-244.58885192871094,,,
2018,11,27,18,24,35,335,-244.77481842041016,,,
2018,11,27,18,24,35,338,-244.71473693847656,6468.0,7595.0,4294966111.0
2018,11,27,18,24,35,342,-244.64035034179688,,,
2018,11,27,18,24,35,346,-244.68612670898438,,,
2018,11,27,18,24,35,350,-244.71187591552734,,,
2018,11,27,18,24,35,354,-244.75479125976562,,,
2018,11,27,18,24,35,358,-244.83203887939453,6654.0,7938.0,4294965924.0
2018,11,27,18,24,35,362,-244.80628967285156,,,
2018,11,27,18,24,35,366,-244.9207305908203,,,
2018,11,27,18,24,35,370,-244.9178695678711,,,
2018,11,27,18,24,35,374,-244.89784240722656,,,
2018,11,27,18,24,35,378,-244.88353729248047,6791.0,8075.0,4294965768.0
2018,11,27,18,24,35,381,-244.89212036132812,,,
2018,11,27,18,24,35,385,-244.83203887939453,,,
2018,11,27,18,24,35,389,-244.89212036132812,,,
2018,11,27,18,24,35,393,-245.02944946289062,,,
2018,11,27,18,24,35,397,-245.20397186279297,6732.0,7859.0,4294965748.0
2018,11,27,18,24,35,401,-245.23258209228516,,,
2018,11,27,18,24,35,405,-245.19824981689453,,,
2018,11,27,18,24,35,409,-245.12100219726562,,,
2018,11,27,18,24,35,413,-244.9951171875,,,
2018,11,27,18,24,35,417,-245.12672424316406,6693.0,7516.0,4294965787.0
2018,11,27,18,24,35,420,-245.1467514038086,,,
2018,11,27,18,24,35,424,-245.14389038085938,,,
2018,11,27,18,24,35,428,-245.1009750366211,,,
2018,11,27,18,24,35,432,-245.1639175415039,,,
2018,11,27,18,24,35,436,-245.16677856445312,6575.0,7418.0,4294965689.0
2018,11,27,18,24,35,440,-245.07522583007812,,,
2018,11,27,18,24,35,444,-245.0551986694336,,,
2018,11,27,18,24,35,448,-244.9665069580078,,,
2018,11,27,18,24,35,452,-245.06092071533203,,,
2018,11,27,18,24,35,456,-245.09525299072266,6575.0,7438.0,4294965621.0
2018,11,27,18,24,35,460,-245.13530731201172,,,
2018,11,27,18,24,35,463,-245.32699584960938,,,
2018,11,27,18,24,35,467,-245.1953887939453,,,
2018,11,27,18,24,35,471,-245.17250061035156,,,
2018,11,27,18,24,35,475,-245.07522583007812,6575.0,7497.0,4294965601.0
2018,11,27,18,24,35,479,-244.91214752197266,,,
2018,11,27,18,24,35,483,-244.77195739746094,,,
2018,11,27,18,24,35,487,-244.4314956665039,,,
2018,11,27,18,24,35,491,-244.19689178466797,,,
2018,11,27,18,24,35,495,-244.22264099121094,6654.0,7477.0,4294965523.0
2018,11,27,18,24,35,499,-244.25697326660156,,,
2018,11,27,18,24,35,503,-244.354248046875,,,
2018,11,27,18,24,35,506,-244.4143295288086,,,
2018,11,27,18,24,35,510,-244.80342864990234,,,
2018,11,27,18,24,35,514,-244.8577880859375,6752.0,7418.0,4294965621.0
2018,11,27,18,24,35,518,-244.86923217773438,,,
2018,11,27,18,24,35,522,-244.94647979736328,,,
2018,11,27,18,24,35,526,-245.27549743652344,,,
2018,11,27,18,24,35,530,-245.46432495117188,,,
2018,11,27,18,24,35,534,-245.35846710205078,6771.0,7173.0,4294965709.0
2018,11,27,18,24,35,538,-245.42999267578125,,,
2018,11,27,18,24,35,542,-245.31841278076172,,,
2018,11,27,18,24,35,545,-245.36991119384766,,,
2018,11,27,18,24,35,549,-245.21541595458984,,,
2018,11,27,18,24,35,553,-245.35560607910156,6673.0,7016.0,4294966022.0
2018,11,27,18,24,35,557,-245.23258209228516,,,
2018,11,27,18,24,35,561,-245.1925277709961,,,
2018,11,27,18,24,35,565,-245.1610565185547,,,
2018,11,27,18,24,35,569,-245.14102935791016,,,
2018,11,27,18,24,35,573,-245.26691436767578,6732.0,6889.0,4294966189.0
2018,11,27,18,24,35,577,-245.1152801513672,,,
2018,11,27,18,24,35,581,-245.07522583007812,,,
2018,11,27,18,24,35,585,-245.08094787597656,,,
2018,11,27,18,24,35,588,-245.1467514038086,,,
2018,11,27,18,24,35,592,-245.27263641357422,6811.0,7212.0,4294966189.0
2018,11,27,18,24,35,596,-244.903564453125,,,
2018,11,27,18,24,35,600,-243.39580535888672,,,
2018,11,27,18,24,35,604,-241.0411834716797,,,
2018,11,27,18,24,35,608,-238.0685806274414,,,
2018,11,27,18,24,35,612,-234.95864868164062,6909.0,7575.0,4294966022.0
2018,11,27,18,24,35,616,-229.3224334716797,,,
2018,11,27,18,24,35,620,-224.06959533691406,,,
2018,11,27,18,24,35,624,-222.52464294433594,,,
2018,11,27,18,24,35,628,-228.83319854736328,,,
2018,11,27,18,24,35,631,-236.90414428710938,7114.0,8114.0,4294965768.0
2018,11,27,18,24,35,635,-241.2099838256836,,,
2018,11,27,18,24,35,639,-245.85342407226562,,,
2018,11,27,18,24,35,643,-250.92029571533203,,,
2018,11,27,18,24,35,647,-249.5098114013672,,,
2018,11,27,18,24,35,651,-246.95205688476562,7291.0,8163.0,4294966169.0
2018,11,27,18,24,35,655,-244.25411224365234,,,
2018,11,27,18,24,35,659,-243.56746673583984,,,
2018,11,27,18,24,35,663,-243.46160888671875,,,
2018,11,27,18,24,35,667,-244.02236938476562,,,
2018,11,27,18,24,35,670,-244.2312240600586,7154.0,7653.0,4294966248.0
2018,11,27,18,24,35,674,-244.22264099121094,,,
2018,11,27,18,24,35,678,-244.19116973876953,,,
2018,11,27,18,24,35,682,-244.13681030273438,,,
2018,11,27,18,24,35,686,-244.10247802734375,,,
2018,11,27,18,24,35,690,-244.10247802734375,,,
2018,11,27,18,24,35,694,-244.15111541748047,,,
2018,11,27,18,24,35,698,-244.10533905029297,,,
2018,11,27,18,24,35,702,-244.16542053222656,,,
2018,11,27,18,24,35,706,-244.13108825683594,,,
2018,11,27,18,24,35,710,-244.1539764404297,8075.0,8702.0,4294965444.0
2018,11,27,18,24,35,713,-244.0938949584961,,,
2018,11,27,18,24,35,717,-244.31133270263672,,,
2018,11,27,18,24,35,721,-244.354248046875,,,
2018,11,27,18,24,35,725,-244.21977996826172,,,
2018,11,27,18,24,35,729,-244.07958984375,7252.0,8702.0,4294965082.0
2018,11,27,18,24,35,733,-244.01378631591797,,,
2018,11,27,18,24,35,737,-244.0052032470703,,,
2018,11,27,18,24,35,741,-243.896484375,,,
2018,11,27,18,24,35,745,-243.6847686767578,,,
2018,11,27,18,24,35,749,-243.621826171875,6232.0,8663.0,4294965327.0
2018,11,27,18,24,35,753,-243.47591400146484,,,
2018,11,27,18,24,35,756,-243.41583251953125,,,
2018,11,27,18,24,35,760,-243.1955337524414,,,
2018,11,27,18,24,35,764,-243.06678771972656,,,
2018,11,27,18,24,35,768,-243.0095672607422,5948.0,8535.0,4294966169.0
2018,11,27,18,24,35,772,-242.9037094116211,,,
2018,11,27,18,24,35,776,-242.706298828125,,,
2018,11,27,18,24,35,780,-242.46597290039062,,,
2018,11,27,18,24,35,784,-242.33722686767578,,,
2018,11,27,18,24,35,788,-242.25711822509766,5713.0,8114.0,4294966689.0
2018,11,27,18,24,35,792,-242.19417572021484,,,
2018,11,27,18,24,35,795,-242.14553833007812,,,
2018,11,27,18,24,35,799,-241.98246002197266,,,
2018,11,27,18,24,35,803,-241.82796478271484,,,
2018,11,27,18,24,35,807,-241.75643920898438,5733.0,7840.0,4294966993.0
2018,11,27,18,24,35,811,-241.8966293334961,,,
2018,11,27,18,24,35,815,-241.92237854003906,,,
2018,11,27,18,24,35,819,-241.88804626464844,,,
2018,11,27,18,24,35,823,-241.83368682861328,,,
2018,11,27,18,24,35,827,-241.87088012695312,5752.0,7634.0,4294966787.0
2018,11,27,18,24,35,831,-241.97959899902344,,,
2018,11,27,18,24,35,835,-242.24281311035156,,,
2018,11,27,18,24,35,838,-242.22278594970703,,,
2018,11,27,18,24,35,842,-242.45166778564453,,,
2018,11,27,18,24,35,846,-242.38014221191406,5752.0,7918.0,4294966571.0
2018,11,27,18,24,35,850,-242.63763427734375,,,
2018,11,27,18,24,35,854,-242.88368225097656,,,
2018,11,27,18,24,35,858,-243.10970306396484,,,
2018,11,27,18,24,35,862,-243.18981170654297,,,
2018,11,27,18,24,35,866,-243.39580535888672,5546.0,8437.0,4294966630.0
2018,11,27,18,24,35,870,-243.6361312866211,,,
2018,11,27,18,24,35,874,-243.81637573242188,,,
2018,11,27,18,24,35,878,-243.7448501586914,,,
2018,11,27,18,24,35,881,-243.79634857177734,,,
2018,11,27,18,24,35,885,-243.75343322753906,5243.0,8584.0,4294966934.0
2018,11,27,18,24,35,889,-243.82781982421875,,,
2018,11,27,18,24,35,893,-243.80779266357422,,,
2018,11,27,18,24,35,897,-243.8650131225586,,,
2018,11,27,18,24,35,901,-243.83926391601562,,,
2018,11,27,18,24,35,905,-243.76201629638672,4880.0,8604.0,147.0
2018,11,27,18,24,35,909,-243.84784698486328,,,
2018,11,27,18,24,35,913,-244.1253662109375,,,
2018,11,27,18,24,35,917,-244.0509796142578,,,
2018,11,27,18,24,35,920,-244.01378631591797,,,
2018,11,27,18,24,35,924,-243.9250946044922,4723.0,8663.0,127.0
2018,11,27,18,24,35,928,-244.15969848632812,,,
2018,11,27,18,24,35,932,-244.2941665649414,,,
2018,11,27,18,24,35,936,-244.25983428955078,,,
2018,11,27,18,24,35,940,-244.25983428955078,,,
2018,11,27,18,24,35,944,-244.17400360107422,4880.0,8839.0,4294967247.0
2018,11,27,18,24,35,948,-244.2340850830078,,,
2018,11,27,18,24,35,952,-244.1568374633789,,,
2018,11,27,18,24,35,956,-244.1883087158203,,,
2018,11,27,18,24,35,960,-244.24266815185547,,,
2018,11,27,18,24,35,963,-244.05956268310547,5350.0,8986.0,4294966953.0
2018,11,27,18,24,35,967,-243.988037109375,,,
2018,11,27,18,24,35,971,-244.02809143066406,,,
2018,11,27,18,24,35,975,-244.0023422241211,,,
2018,11,27,18,24,35,979,-243.88504028320312,,,
2018,11,27,18,24,35,983,-243.66188049316406,5684.0,8967.0,4294966610.0
2018,11,27,18,24,35,987,-243.6504364013672,,,
2018,11,27,18,24,35,991,-243.62468719482422,,,
2018,11,27,18,24,35,995,-243.71337890625,,,
2018,11,27,18,24,35,999,-243.6676025390625,,,
2018,11,27,18,24,36,3,-243.52169036865234,5850.0,8820.0,4294966267.0
2018,11,27,18,24,36,6,-243.71337890625,,,
2018,11,27,18,24,36,10,-243.66188049316406,,,
2018,11,27,18,24,36,14,-243.59607696533203,,,
2018,11,27,18,24,36,18,-243.5131072998047,,,
2018,11,27,18,24,36,22,-243.4844970703125,5772.0,8663.0,4294966081.0
2018,11,27,18,24,36,26,-243.57032775878906,,,
2018,11,27,18,24,36,30,-243.6504364013672,,,
2018,11,27,18,24,36,34,-243.64757537841797,,,
2018,11,27,18,24,36,38,-243.2270050048828,,,
2018,11,27,18,24,36,42,-243.20697784423828,5586.0,8624.0,4294965964.0
2018,11,27,18,24,36,45,-243.35289001464844,,,
2018,11,27,18,24,36,49,-243.48163604736328,,,
2018,11,27,18,24,36,53,-243.61610412597656,,,
2018,11,27,18,24,36,57,-243.71337890625,,,
2018,11,27,18,24,36,61,-243.83926391601562,5350.0,8800.0,4294965944.0
2018,11,27,18,24,36,65,-243.896484375,,,
2018,11,27,18,24,36,69,-244.0624237060547,,,
2018,11,27,18,24,36,73,-244.05956268310547,,,
2018,11,27,18,24,36,77,-244.21119689941406,,,
2018,11,27,18,24,36,81,-244.2026138305664,5007.0,8761.0,4294966091.0
2018,11,27,18,24,36,85,-244.21977996826172,,,
2018,11,27,18,24,36,88,-244.25411224365234,,,
2018,11,27,18,24,36,92,-244.42291259765625,,,
2018,11,27,18,24,36,96,-244.35997009277344,,,
2018,11,27,18,24,36,100,-244.22836303710938,4664.0,8496.0,4294966130.0
2018,11,27,18,24,36,104,-244.21119689941406,,,
2018,11,27,18,24,36,108,-244.28558349609375,,,
2018,11,27,18,24,36,112,-244.34852600097656,,,
2018,11,27,18,24,36,116,-244.3828582763672,,,
2018,11,27,18,24,36,120,-244.4000244140625,4664.0,8535.0,4294966081.0
2018,11,27,18,24,36,124,-244.48013305664062,,,
2018,11,27,18,24,36,128,-244.64035034179688,,,
2018,11,27,18,24,36,131,-244.86923217773438,,,
2018,11,27,18,24,36,135,-244.89498138427734,,,
2018,11,27,18,24,36,139,-245.03803253173828,4704.0,8584.0,4294966042.0
2018,11,27,18,24,36,143,-244.96078491210938,,,
2018,11,27,18,24,36,147,-244.97222900390625,,,
2018,11,27,18,24,36,151,-245.2840805053711,,,
2018,11,27,18,24,36,155,-245.086669921875,,,
2018,11,27,18,24,36,159,-245.1324462890625,4860.0,8535.0,4294965768.0
2018,11,27,18,24,36,163,-245.2554702758789,,,
2018,11,27,18,24,36,167,-244.98939514160156,,,
2018,11,27,18,24,36,170,-245.36705017089844,,,
2018,11,27,18,24,36,174,-245.4214096069336,,,
2018,11,27,18,24,36,178,-245.55015563964844,5409.0,8937.0,4294966228.0
2018,11,27,18,24,36,182,-245.43285369873047,,,
2018,11,27,18,24,36,186,-245.51010131835938,,,
2018,11,27,18,24,36,190,-245.50151824951172,,,
2018,11,27,18,24,36,194,-245.48721313476562,,,
2018,11,27,18,24,36,198,-245.5587387084961,5684.0,9280.0,4294965905.0
2018,11,27,18,24,36,202,-245.45574188232422,,,
2018,11,27,18,24,36,206,-245.55301666259766,,,
2018,11,27,18,24,36,210,-245.5902099609375,,,
2018,11,27,18,24,36,213,-245.73326110839844,,,
2018,11,27,18,24,36,217,-245.71895599365234,5350.0,8545.0,4294965924.0
2018,11,27,18,24,36,221,-245.65601348876953,,,
2018,11,27,18,24,36,225,-245.72181701660156,,,
2018,11,27,18,24,36,229,-246.02508544921875,,,
2018,11,27,18,24,36,233,-246.13094329833984,,,
2018,11,27,18,24,36,237,-246.09088897705078,5566.0,8398.0,4294966424.0
2018,11,27,18,24,36,241,-245.9421157836914,,,
2018,11,27,18,24,36,245,-245.90206146240234,,,
2018,11,27,18,24,36,249,-245.99647521972656,,,
2018,11,27,18,24,36,253,-246.1395263671875,,,
2018,11,27,18,24,36,256,-246.0794448852539,5566.0,8339.0,4294965924.0
2018,11,27,18,24,36,260,-246.01078033447266,,,
2018,11,27,18,24,36,264,-246.07086181640625,,,
2018,11,27,18,24,36,268,-246.19388580322266,,,
2018,11,27,18,24,36,272,-246.2167739868164,,,
2018,11,27,18,24,36,276,-246.08516693115234,5713.0,7732.0,4294965807.0
2018,11,27,18,24,36,280,-245.78189849853516,,,
2018,11,27,18,24,36,284,-245.7103729248047,,,
2018,11,27,18,24,36,288,-245.78475952148438,,,
2018,11,27,18,24,36,292,-245.6960678100586,,,
2018,11,27,18,24,36,295,-245.72467803955078,5831.0,7173.0,4294965523.0
2018,11,27,18,24,36,299,-245.54157257080078,,,
2018,11,27,18,24,36,303,-245.3441619873047,,,
2018,11,27,18,24,36,307,-245.06092071533203,,,
2018,11,27,18,24,36,311,-244.7061538696289,,,
2018,11,27,18,24,36,315,-244.63748931884766,5693.0,7232.0,4294965581.0
2018,11,27,18,24,36,319,-244.82059478759766,,,
2018,11,27,18,24,36,323,-244.92359161376953,,,
2018,11,27,18,24,36,327,-245.13816833496094,,,
2018,11,27,18,24,36,331,-245.40996551513672,,,
2018,11,27,18,24,36,335,-245.4385757446289,5752.0,7134.0,4294965503.0
2018,11,27,18,24,36,338,-245.32699584960938,,,
2018,11,27,18,24,36,342,-245.17536163330078,,,
2018,11,27,18,24,36,346,-245.13530731201172,,,
2018,11,27,18,24,36,350,-245.50437927246094,,,
2018,11,27,18,24,36,354,-245.76759338378906,5889.0,7957.0,4294965366.0
2018,11,27,18,24,36,358,-245.82481384277344,,,
2018,11,27,18,24,36,362,-245.76759338378906,,,
2018,11,27,18,24,36,366,-245.5615997314453,,,
2018,11,27,18,24,36,370,-245.5759048461914,,,
2018,11,27,18,24,36,374,-245.6645965576172,5772.0,8702.0,4294965366.0
2018,11,27,18,24,36,378,-245.65887451171875,,,
2018,11,27,18,24,36,381,-245.45574188232422,,,
2018,11,27,18,24,36,385,-245.4242706298828,,,
2018,11,27,18,24,36,389,-245.4214096069336,,,
2018,11,27,18,24,36,393,-245.50151824951172,5684.0,9006.0,4294965346.0
2018,11,27,18,24,36,397,-245.46146392822266,,,
2018,11,27,18,24,36,401,-245.3327178955078,,,
2018,11,27,18,24,36,405,-245.2840805053711,,,
2018,11,27,18,24,36,409,-245.4843521118164,,,
2018,11,27,18,24,36,413,-245.71895599365234,5586.0,9123.0,4294965581.0
2018,11,27,18,24,36,417,-245.56446075439453,,,
2018,11,27,18,24,36,420,-244.9636459350586,,,
2018,11,27,18,24,36,424,-243.02959442138672,,,
2018,11,27,18,24,36,428,-241.03546142578125,,,
2018,11,27,18,24,36,432,-238.7523651123047,5527.0,8702.0,4294965728.0
2018,11,27,18,24,36,436,-234.92717742919922,,,
2018,11,27,18,24,36,440,-228.21807861328125,,,
2018,11,27,18,24,36,444,-222.44739532470703,,,
2018,11,27,18,24,36,448,-222.40447998046875,,,
2018,11,27,18,24,36,452,-229.84027862548828,5664.0,8339.0,4294965346.0
2018,11,27,18,24,36,456,-235.93425750732422,,,
2018,11,27,18,24,36,460,-238.91544342041016,,,
2018,11,27,18,24,36,463,-246.60301208496094,,,
2018,11,27,18,24,36,467,-249.35245513916016,,,
2018,11,27,18,24,36,471,-247.35260009765625,5948.0,7879.0,4294965140.0
2018,11,27,18,24,36,475,-244.81201171875,,,
2018,11,27,18,24,36,479,-244.14539337158203,,,
2018,11,27,18,24,36,483,-243.6361312866211,,,
2018,11,27,18,24,36,487,-244.50016021728516,,,
2018,11,27,18,24,36,491,-244.8720932006836,6115.0,7516.0,4294965238.0
2018,11,27,18,24,36,495,-244.95506286621094,,,
2018,11,27,18,24,36,499,-244.89498138427734,,,
2018,11,27,18,24,36,503,-244.77195739746094,,,
2018,11,27,18,24,36,506,-244.6918487548828,,,
2018,11,27,18,24,36,510,-244.72904205322266,6311.0,7575.0,4294964797.0
2018,11,27,18,24,36,514,-244.6432113647461,,,
2018,11,27,18,24,36,518,-244.69470977783203,,,
2018,11,27,18,24,36,522,-244.40860748291016,,,
2018,11,27,18,24,36,526,-244.43721771240234,,,
2018,11,27,18,24,36,530,-244.4286346435547,6448.0,7693.0,4294964925.0
2018,11,27,18,24,36,534,-244.54021453857422,,,
2018,11,27,18,24,36,538,-244.4143295288086,,,
2018,11,27,18,24,36,542,-244.19689178466797,,,
2018,11,27,18,24,36,545,-244.2169189453125,,,
2018,11,27,18,24,36,549,-244.22836303710938,6272.0,7693.0,4294964886.0
2018,11,27,18,24,36,553,-244.1539764404297,,,
2018,11,27,18,24,36,557,-244.0481185913086,,,
2018,11,27,18,24,36,561,-243.96800994873047,,,
2018,11,27,18,24,36,565,-243.89362335205078,,,
2018,11,27,18,24,36,569,-243.8364028930664,6105.0,7918.0,4294964817.0
2018,11,27,18,24,36,573,-243.71910095214844,,,
2018,11,27,18,24,36,577,-243.61896514892578,,,
2018,11,27,18,24,36,581,-243.43299865722656,,,
2018,11,27,18,24,36,585,-243.1783676147461,,,
2018,11,27,18,24,36,588,-243.06106567382812,6174.0,8134.0,4294964905.0
2018,11,27,18,24,36,592,-242.9523468017578,,,
2018,11,27,18,24,36,596,-242.77782440185547,,,
2018,11,27,18,24,36,600,-242.60616302490234,,,
2018,11,27,18,24,36,604,-242.42877960205078,,,
2018,11,27,18,24,36,608,-242.38872528076172,6134.0,7996.0,4294964797.0
2018,11,27,18,24,36,612,-242.34294891357422,,,
2018,11,27,18,24,36,616,-241.9881820678711,,,
2018,11,27,18,24,36,620,-241.90807342529297,,,
2018,11,27,18,24,36,624,-241.84513092041016,,,
2018,11,27,18,24,36,628,-241.89090728759766,6174.0,7732.0,4294964719.0
2018,11,27,18,24,36,631,-241.89090728759766,,,
2018,11,27,18,24,36,635,-241.95384979248047,,,
2018,11,27,18,24,36,639,-241.71924591064453,,,
2018,11,27,18,24,36,643,-241.78504943847656,,,
2018,11,27,18,24,36,647,-241.77074432373047,6174.0,7653.0,4294964680.0
2018,11,27,18,24,36,651,-241.9910430908203,,,
2018,11,27,18,24,36,655,-242.1426773071289,,,
2018,11,27,18,24,36,659,-242.19131469726562,,,
2018,11,27,18,24,36,663,-242.27142333984375,,,
2018,11,27,18,24,36,667,-242.42877960205078,6232.0,7634.0,4294964582.0
2018,11,27,18,24,36,670,-242.74063110351562,,,
2018,11,27,18,24,36,674,-243.0582046508789,,,
2018,11,27,18,24,36,678,-243.5903549194336,,,
2018,11,27,18,24,36,682,-243.67618560791016,,,
2018,11,27,18,24,36,686,-243.89362335205078,,,
2018,11,27,18,24,36,690,-244.11678314208984,,,
2018,11,27,18,24,36,694,-244.2798614501953,,,
2018,11,27,18,24,36,698,-244.2026138305664,,,
2018,11,27,18,24,36,702,-244.26841735839844,,,
2018,11,27,18,24,36,706,-244.2798614501953,4294964621.0,6370.0,7497.0
2018,11,27,18,24,36,710,-244.46868896484375,,,
2018,11,27,18,24,36,713,-244.42577362060547,,,
2018,11,27,18,24,36,717,-244.3399429321289,,,
2018,11,27,18,24,36,721,-244.2770004272461,,,
2018,11,27,18,24,36,725,-244.1883087158203,4294964758.0,6252.0,7340.0
2018,11,27,18,24,36,729,-244.35710906982422,,,
2018,11,27,18,24,36,733,-244.40288543701172,,,
2018,11,27,18,24,36,737,-243.9737319946289,,,
2018,11,27,18,24,36,741,-244.08245086669922,,,
2018,11,27,18,24,36,745,-244.16542053222656,4294964817.0,6105.0,7271.0
2018,11,27,18,24,36,749,-244.27127838134766,,,
2018,11,27,18,24,36,753,-244.48299407958984,,,
2018,11,27,18,24,36,756,-244.48299407958984,,,
2018,11,27,18,24,36,760,-244.39144134521484,,,
2018,11,27,18,24,36,764,-244.29988861083984,4294964964.0,5968.0,7516.0
2018,11,27,18,24,36,768,-244.58885192871094,,,
2018,11,27,18,24,36,772,-244.65179443359375,,,
2018,11,27,18,24,36,776,-244.5831298828125,,,
2018,11,27,18,24,36,780,-244.56024169921875,,,
2018,11,27,18,24,36,784,-244.4629669189453,4294964817.0,5929.0,7555.0
2018,11,27,18,24,36,788,-244.44293975830078,,,
2018,11,27,18,24,36,792,-244.54021453857422,,,
2018,11,27,18,24,36,795,-244.4143295288086,,,
2018,11,27,18,24,36,799,-244.28272247314453,,,
2018,11,27,18,24,36,803,-244.08531188964844,4294965062.0,5987.0,7477.0
2018,11,27,18,24,36,807,-244.3084716796875,,,
2018,11,27,18,24,36,811,-244.354248046875,,,
2018,11,27,18,24,36,815,-244.27413940429688,,,
2018,11,27,18,24,36,819,-244.0967559814453,,,
2018,11,27,18,24,36,823,-243.94798278808594,4294965082.0,6046.0,7320.0
2018,11,27,18,24,36,827,-244.0052032470703,,,
2018,11,27,18,24,36,831,-244.0052032470703,,,
2018,11,27,18,24,36,835,-243.96514892578125,,,
2018,11,27,18,24,36,838,-243.87645721435547,,,
2018,11,27,18,24,36,842,-243.804931640625,4294965121.0,6232.0,7438.0
2018,11,27,18,24,36,846,-243.83068084716797,,,
2018,11,27,18,24,36,850,-243.9594268798828,,,
2018,11,27,18,24,36,854,-243.91651153564453,,,
2018,11,27,18,24,36,858,-243.7448501586914,,,
2018,11,27,18,24,36,862,-243.7448501586914,4294965199.0,6350.0,7693.0
2018,11,27,18,24,36,866,-243.71623992919922,,,
2018,11,27,18,24,36,870,-244.13394927978516,,,
2018,11,27,18,24,36,874,-244.19689178466797,,,
2018,11,27,18,24,36,878,-244.09961700439453,,,
2018,11,27,18,24,36,881,-243.97945404052734,4294964886.0,6507.0,7879.0
2018,11,27,18,24,36,885,-244.0481185913086,,,
2018,11,27,18,24,36,889,-244.06814575195312,,,
2018,11,27,18,24,36,893,-244.2455291748047,,,
2018,11,27,18,24,36,897,-244.0967559814453,,,
2018,11,27,18,24,36,901,-244.11392211914062,4294964739.0,6507.0,7957.0
2018,11,27,18,24,36,905,-244.0652847290039,,,
2018,11,27,18,24,36,909,-244.35710906982422,,,
2018,11,27,18,24,36,913,-244.42577362060547,,,
2018,11,27,18,24,36,917,-244.40860748291016,,,
2018,11,27,18,24,36,920,-244.4143295288086,4294964543.0,6507.0,7977.0
2018,11,27,18,24,36,924,-244.43435668945312,,,
2018,11,27,18,24,36,928,-244.59171295166016,,,
2018,11,27,18,24,36,932,-244.72618103027344,,,
2018,11,27,18,24,36,936,-244.92645263671875,,,
2018,11,27,18,24,36,940,-244.90070343017578,4294964641.0,6468.0,7898.0
2018,11,27,18,24,36,944,-244.69757080078125,,,
2018,11,27,18,24,36,948,-244.95220184326172,,,
2018,11,27,18,24,36,952,-245.07522583007812,,,
2018,11,27,18,24,36,956,-245.03231048583984,,,
2018,11,27,18,24,36,960,-244.86923217773438,4294964621.0,6409.0,7840.0
2018,11,27,18,24,36,963,-244.92359161376953,,,
2018,11,27,18,24,36,967,-244.98367309570312,,,
2018,11,27,18,24,36,971,-245.1610565185547,,,
2018,11,27,18,24,36,975,-245.2411651611328,,,
2018,11,27,18,24,36,979,-245.15247344970703,4294964601.0,6330.0,7614.0
2018,11,27,18,24,36,983,-245.03803253173828,,,
2018,11,27,18,24,36,987,-245.03231048583984,,,
2018,11,27,18,24,36,991,-245.18394470214844,,,
2018,11,27,18,24,36,995,-245.18394470214844,,,
2018,11,27,18,24,36,999,-245.12958526611328,4294964758.0,6252.0,7575.0
2018,11,27,18,24,37,3,-244.97509002685547,,,
2018,11,27,18,24,37,6,-245.04661560058594,,,
2018,11,27,18,24,37,10,-245.1925277709961,,,
2018,11,27,18,24,37,14,-245.2411651611328,,,
2018,11,27,18,24,37,18,-245.09239196777344,4294964758.0,6193.0,7634.0
2018,11,27,18,24,37,22,-245.00370025634766,,,
2018,11,27,18,24,37,26,-245.06664276123047,,,
2018,11,27,18,24,37,30,-245.1496124267578,,,
2018,11,27,18,24,37,34,-245.12386322021484,,,
2018,11,27,18,24,37,38,-245.15247344970703,4294964817.0,6193.0,7673.0
2018,11,27,18,24,37,42,-245.18680572509766,,,
2018,11,27,18,24,37,45,-245.21255493164062,,,
2018,11,27,18,24,37,49,-245.32699584960938,,,
2018,11,27,18,24,37,53,-245.3899383544922,,,
2018,11,27,18,24,37,57,-245.3441619873047,4294964856.0,6213.0,7653.0
2018,11,27,18,24,37,61,-245.08953094482422,,,
2018,11,27,18,24,37,65,-245.03517150878906,,,
2018,11,27,18,24,37,69,-245.10669708251953,,,
2018,11,27,18,24,37,73,-245.27263641357422,,,
2018,11,27,18,24,37,77,-245.2068328857422,4294965082.0,6213.0,7634.0
2018,11,27,18,24,37,81,-245.12672424316406,,,
2018,11,27,18,24,37,85,-245.17536163330078,,,
2018,11,27,18,24,37,88,-245.35846710205078,,,
2018,11,27,18,24,37,92,-245.41568756103516,,,
2018,11,27,18,24,37,96,-245.45001983642578,4294964944.0,6134.0,7673.0
2018,11,27,18,24,37,100,-245.35846710205078,,,
2018,11,27,18,24,37,104,-245.1639175415039,,,
2018,11,27,18,24,37,108,-245.24402618408203,,,
2018,11,27,18,24,37,112,-245.1610565185547,,,
2018,11,27,18,24,37,116,-245.00656127929688,4294965062.0,6213.0,7693.0
2018,11,27,18,24,37,120,-244.7948455810547,,,
2018,11,27,18,24,37,124,-244.64893341064453,,,
2018,11,27,18,24,37,128,-244.81487274169922,,,
2018,11,27,18,24,37,131,-244.79198455810547,,,
2018,11,27,18,24,37,135,-244.44580078125,4294965082.0,6174.0,7742.0
2018,11,27,18,24,37,139,-244.02809143066406,,,
2018,11,27,18,24,37,143,-244.29988861083984,,,
2018,11,27,18,24,37,147,-244.53449249267578,,,
2018,11,27,18,24,37,151,-244.88353729248047,,,
2018,11,27,18,24,37,155,-244.98939514160156,4294964964.0,6134.0,7761.0
2018,11,27,18,24,37,159,-245.21541595458984,,,
2018,11,27,18,24,37,163,-245.06092071533203,,,
2018,11,27,18,24,37,167,-245.07808685302734,,,
2018,11,27,18,24,37,170,-245.17822265625,,,
2018,11,27,18,24,37,174,-245.4071044921875,4294964944.0,6085.0,7859.0
2018,11,27,18,24,37,178,-245.67031860351562,,,
2018,11,27,18,24,37,182,-245.48721313476562,,,
2018,11,27,18,24,37,186,-245.4357147216797,,,
2018,11,27,18,24,37,190,-245.45860290527344,,,
2018,11,27,18,24,37,194,-245.6216812133789,4294965101.0,6066.0,7761.0
2018,11,27,18,24,37,198,-245.49293518066406,,,
2018,11,27,18,24,37,202,-245.50724029541016,,,
2018,11,27,18,24,37,206,-245.54157257080078,,,
2018,11,27,18,24,37,210,-245.54157257080078,,,
2018,11,27,18,24,37,213,-245.53298950195312,4294965140.0,6085.0,7918.0
2018,11,27,18,24,37,217,-245.52440643310547,,,
2018,11,27,18,24,37,221,-245.34988403320312,,,
2018,11,27,18,24,37,225,-245.56446075439453,,,
2018,11,27,18,24,37,229,-245.61595916748047,,,
2018,11,27,18,24,37,233,-245.7132339477539,4294964964.0,6115.0,7957.0
2018,11,27,18,24,37,237,-245.59593200683594,,,
2018,11,27,18,24,37,241,-245.6216812133789,,,
2018,11,27,18,24,37,245,-245.4357147216797,,,
2018,11,27,18,24,37,249,-244.68612670898438,,,
2018,11,27,18,24,37,253,-243.2384490966797,4294965101.0,6134.0,7820.0
2018,11,27,18,24,37,256,-241.42169952392578,,,
2018,11,27,18,24,37,260,-238.90399932861328,,,
2018,11,27,18,24,37,264,-233.86573791503906,,,
2018,11,27,18,24,37,268,-226.96208953857422,,,
2018,11,27,18,24,37,272,-221.90380096435547,4294965160.0,6115.0,7840.0
2018,11,27,18,24,37,276,-224.73621368408203,,,
2018,11,27,18,24,37,280,-232.45525360107422,,,
2018,11,27,18,24,37,284,-236.02008819580078,,,
2018,11,27,18,24,37,288,-240.22579193115234,,,
2018,11,27,18,24,37,292,-248.74019622802734,4294965062.0,6046.0,7840.0
2018,11,27,18,24,37,295,-248.3196258544922,,,
2018,11,27,18,24,37,299,-245.78189849853516,,,
2018,11,27,18,24,37,303,-244.1425323486328,,,
2018,11,27,18,24,37,307,-243.82495880126953,,,
2018,11,27,18,24,37,311,-244.1568374633789,4294964964.0,6066.0,7712.0
2018,11,27,18,24,37,315,-244.90070343017578,,,
2018,11,27,18,24,37,319,-244.90642547607422,,,
2018,11,27,18,24,37,323,-244.8577880859375,,,
2018,11,27,18,24,37,327,-244.94361877441406,,,
2018,11,27,18,24,37,331,-245.04947662353516,4294965385.0,6007.0,7918.0
2018,11,27,18,24,37,335,-245.06092071533203,,,
2018,11,27,18,24,37,338,-245.01800537109375,,,
2018,11,27,18,24,37,342,-244.84920501708984,,,
2018,11,27,18,24,37,346,-244.74048614501953,,,
2018,11,27,18,24,37,350,-244.84920501708984,4294965140.0,6085.0,8075.0
2018,11,27,18,24,37,354,-244.74334716796875,,,
2018,11,27,18,24,37,358,-244.62890625,,,
2018,11,27,18,24,37,362,-244.50302124023438,,,
2018,11,27,18,24,37,366,-244.46582794189453,,,
2018,11,27,18,24,37,370,-244.5516586303711,4294965307.0,5929.0,7879.0
2018,11,27,18,24,37,374,-244.53449249267578,,,
2018,11,27,18,24,37,378,-244.28272247314453,,,
2018,11,27,18,24,37,381,-244.2913055419922,,,
2018,11,27,18,24,37,385,-244.08817291259766,,,
2018,11,27,18,24,37,389,-244.12822723388672,4294965366.0,6027.0,8114.0
2018,11,27,18,24,37,393,-244.0481185913086,,,
2018,11,27,18,24,37,397,-243.8793182373047,,,
2018,11,27,18,24,37,401,-243.61324310302734,,,
2018,11,27,18,24,37,405,-243.52169036865234,,,
2018,11,27,18,24,37,409,-243.51024627685547,4294965327.0,6046.0,8094.0
2018,11,27,18,24,37,413,-243.39866638183594,,,
2018,11,27,18,24,37,417,-243.22128295898438,,,
2018,11,27,18,24,37,420,-242.92945861816406,,,
2018,11,27,18,24,37,424,-242.70343780517578,,,
2018,11,27,18,24,37,428,-242.7978515625,4294965327.0,5987.0,7918.0
2018,11,27,18,24,37,432,-242.77210235595703,,,
2018,11,27,18,24,37,436,-242.65480041503906,,,
2018,11,27,18,24,37,440,-242.36583709716797,,,
2018,11,27,18,24,37,444,-242.11406707763672,,,
2018,11,27,18,24,37,448,-241.88232421875,4294965346.0,6066.0,7957.0
2018,11,27,18,24,37,452,-241.9137954711914,,,
2018,11,27,18,24,37,456,-241.973876953125,,,
2018,11,27,18,24,37,460,-241.83940887451172,,,
2018,11,27,18,24,37,463,-241.70780181884766,,,
2018,11,27,18,24,37,467,-241.87088012695312,4294965287.0,6027.0,7957.0
2018,11,27,18,24,37,471,-242.0196533203125,,,
2018,11,27,18,24,37,475,-241.9881820678711,,,
2018,11,27,18,24,37,479,-242.04254150390625,,,
2018,11,27,18,24,37,483,-242.02823638916016,,,
2018,11,27,18,24,37,487,-242.30575561523438,4294965268.0,5948.0,7918.0
2018,11,27,18,24,37,491,-242.6004409790039,,,
2018,11,27,18,24,37,495,-242.68627166748047,,,
2018,11,27,18,24,37,499,-242.83790588378906,,,
2018,11,27,18,24,37,503,-243.12400817871094,,,
2018,11,27,18,24,37,506,-242.94376373291016,4294965307.0,6007.0,7957.0
2018,11,27,18,24,37,510,-243.35861206054688,,,
2018,11,27,18,24,37,514,-243.50738525390625,,,
2018,11,27,18,24,37,518,-243.72482299804688,,,
2018,11,27,18,24,37,522,-243.7763214111328,,,
2018,11,27,18,24,37,526,-243.9737319946289,4294965258.0,5968.0,8094.0
2018,11,27,18,24,37,530,-244.07100677490234,,,
2018,11,27,18,24,37,534,-244.21119689941406,,,
2018,11,27,18,24,37,538,-244.1568374633789,,,
2018,11,27,18,24,37,542,-244.14539337158203,,,
2018,11,27,18,24,37,545,-244.13108825683594,4294965327.0,5968.0,8094.0
2018,11,27,18,24,37,549,-244.31133270263672,,,
2018,11,27,18,24,37,553,-244.33422088623047,,,
2018,11,27,18,24,37,557,-244.3256378173828,,,
2018,11,27,18,24,37,561,-244.17686462402344,,,
2018,11,27,18,24,37,565,-244.25125122070312,4294965425.0,6027.0,7957.0
2018,11,27,18,24,37,569,-244.33135986328125,,,
2018,11,27,18,24,37,573,-244.22550201416016,,,
2018,11,27,18,24,37,577,-244.19689178466797,,,
2018,11,27,18,24,37,581,-244.1854476928711,,,
2018,11,27,18,24,37,585,-244.28558349609375,4294965307.0,5909.0,8075.0
2018,11,27,18,24,37,588,-244.40860748291016,,,
2018,11,27,18,24,37,592,-244.52590942382812,,,
2018,11,27,18,24,37,596,-244.6146011352539,,,
2018,11,27,18,24,37,600,-244.55738067626953,,,
2018,11,27,18,24,37,604,-244.45438385009766,4294965258.0,5929.0,8055.0
2018,11,27,18,24,37,608,-244.50302124023438,,,
2018,11,27,18,24,37,612,-244.68326568603516,,,
2018,11,27,18,24,37,616,-244.62890625,,,
2018,11,27,18,24,37,620,-244.51160430908203,,,
2018,11,27,18,24,37,624,-244.4314956665039,4294965385.0,5968.0,7977.0
2018,11,27,18,24,37,628,-244.46582794189453,,,
2018,11,27,18,24,37,631,-244.45438385009766,,,
2018,11,27,18,24,37,635,-244.3256378173828,,,
2018,11,27,18,24,37,639,-244.25983428955078,,,
2018,11,27,18,24,37,643,-244.08245086669922,4294965307.0,5968.0,8016.0
2018,11,27,18,24,37,647,-244.18258666992188,,,
2018,11,27,18,24,37,651,-244.2340850830078,,,
2018,11,27,18,24,37,655,-244.2455291748047,,,
2018,11,27,18,24,37,659,-244.21405792236328,,,
2018,11,27,18,24,37,663,-244.21119689941406,4294965287.0,5948.0,8114.0
2018,11,27,18,24,37,667,-244.22550201416016,,,
2018,11,27,18,24,37,670,-244.3685531616211,,,
2018,11,27,18,24,37,674,-244.4000244140625,,,
2018,11,27,18,24,37,678,-244.27127838134766,,,
2018,11,27,18,24,37,682,-244.21977996826172,,,
2018,11,27,18,24,37,686,-244.33135986328125,,,
2018,11,27,18,24,37,690,-244.53163146972656,,,
2018,11,27,18,24,37,694,-244.5058822631836,,,
2018,11,27,18,24,37,698,-244.24266815185547,,,
2018,11,27,18,24,37,702,-244.2340850830078,,,
2018,11,27,18,24,37,706,-244.4143295288086,,,
2018,11,27,18,24,37,710,-244.53163146972656,,,
2018,11,27,18,24,37,713,-244.54593658447266,,,
2018,11,27,18,24,37,717,-244.51160430908203,,,
2018,11,27,18,24,37,721,-244.46582794189453,8094.0,4294965307.0,5948.0
2018,11,27,18,24,37,725,-244.49729919433594,,,
2018,11,27,18,24,37,729,-244.6460723876953,,,
2018,11,27,18,24,37,733,-244.76337432861328,,,
2018,11,27,18,24,37,737,-244.80915069580078,,,
2018,11,27,18,24,37,741,-244.72618103027344,8075.0,4294965238.0,5968.0
2018,11,27,18,24,37,745,-244.78912353515625,,,
2018,11,27,18,24,37,749,-245.01514434814453,,,
2018,11,27,18,24,37,753,-245.08094787597656,,,
2018,11,27,18,24,37,756,-245.0723648071289,,,
2018,11,27,18,24,37,760,-245.0265884399414,7977.0,4294965268.0,5987.0
2018,11,27,18,24,37,764,-245.0695037841797,,,
2018,11,27,18,24,37,768,-245.26405334472656,,,
2018,11,27,18,24,37,772,-245.35560607910156,,,
2018,11,27,18,24,37,776,-245.35274505615234,,,
2018,11,27,18,24,37,780,-245.34988403320312,7977.0,4294965385.0,6007.0
2018,11,27,18,24,37,784,-245.15819549560547,,,
2018,11,27,18,24,37,788,-245.2239990234375,,,
2018,11,27,18,24,37,792,-245.3155517578125,,,
2018,11,27,18,24,37,795,-245.21255493164062,,,
2018,11,27,18,24,37,799,-245.2526092529297,8036.0,4294965307.0,5987.0
2018,11,27,18,24,37,803,-245.29266357421875,,,
2018,11,27,18,24,37,807,-245.30982971191406,,,
2018,11,27,18,24,37,811,-245.39852142333984,,,
2018,11,27,18,24,37,815,-245.3441619873047,,,
2018,11,27,18,24,37,819,-245.32127380371094,7996.0,4294965287.0,5968.0
2018,11,27,18,24,37,823,-245.27263641357422,,,
2018,11,27,18,24,37,827,-245.3155517578125,,,
2018,11,27,18,24,37,831,-245.59307098388672,,,
2018,11,27,18,24,37,835,-245.7447052001953,,,
2018,11,27,18,24,37,838,-245.64456939697266,7977.0,4294965258.0,6046.0
2018,11,27,18,24,37,842,-245.5301284790039,,,
2018,11,27,18,24,37,846,-245.59879302978516,,,
2018,11,27,18,24,37,850,-245.6645965576172,,,
2018,11,27,18,24,37,854,-245.6188201904297,,,
2018,11,27,18,24,37,858,-245.45001983642578,7957.0,4294965307.0,5987.0
2018,11,27,18,24,37,862,-245.41282653808594,,,
2018,11,27,18,24,37,866,-245.4242706298828,,,
2018,11,27,18,24,37,870,-245.53298950195312,,,
2018,11,27,18,24,37,874,-245.51010131835938,,,
2018,11,27,18,24,37,878,-245.42713165283203,7977.0,4294965238.0,6007.0
2018,11,27,18,24,37,881,-245.41282653808594,,,
2018,11,27,18,24,37,885,-245.52440643310547,,,
2018,11,27,18,24,37,889,-245.78189849853516,,,
2018,11,27,18,24,37,893,-246.22821807861328,,,
2018,11,27,18,24,37,897,-245.90492248535156,8055.0,4294965199.0,6046.0
2018,11,27,18,24,37,901,-245.82481384277344,,,
2018,11,27,18,24,37,905,-245.64456939697266,,,
2018,11,27,18,24,37,909,-245.82195281982422,,,
2018,11,27,18,24,37,913,-245.88489532470703,,,
2018,11,27,18,24,37,917,-245.86772918701172,7996.0,4294965199.0,5929.0
2018,11,27,18,24,37,920,-245.6674575805664,,,
2018,11,27,18,24,37,924,-245.65887451171875,,,
2018,11,27,18,24,37,928,-245.7904815673828,,,
2018,11,27,18,24,37,932,-245.87059020996094,,,
2018,11,27,18,24,37,936,-245.74756622314453,7977.0,4294965258.0,6027.0
2018,11,27,18,24,37,940,-245.69034576416016,,,
2018,11,27,18,24,37,944,-245.64743041992188,,,
2018,11,27,18,24,37,948,-245.64743041992188,,,
2018,11,27,18,24,37,952,-245.69320678710938,,,
2018,11,27,18,24,37,956,-245.55015563964844,7957.0,4294965219.0,6066.0
2018,11,27,18,24,37,960,-245.22113800048828,,,
2018,11,27,18,24,37,963,-245.22113800048828,,,
2018,11,27,18,24,37,967,-245.3756332397461,,,
2018,11,27,18,24,37,971,-245.4357147216797,,,
2018,11,27,18,24,37,975,-245.34988403320312,7977.0,4294965258.0,6027.0
2018,11,27,18,24,37,979,-245.2096939086914,,,
2018,11,27,18,24,37,983,-245.0122833251953,,,
2018,11,27,18,24,37,987,-245.1181411743164,,,
2018,11,27,18,24,37,991,-245.1467514038086,,,
2018,11,27,18,24,37,995,-245.00370025634766,7957.0,4294965199.0,5968.0
2018,11,27,18,24,37,999,-244.67182159423828,,,
2018,11,27,18,24,38,3,-244.3227767944336,,,
2018,11,27,18,24,38,6,-244.40288543701172,,,
2018,11,27,18,24,38,10,-244.65465545654297,,,
2018,11,27,18,24,38,14,-244.9207305908203,7996.0,4294965140.0,6027.0
2018,11,27,18,24,38,18,-245.0723648071289,,,
2018,11,27,18,24,38,22,-245.53585052490234,,,
2018,11,27,18,24,38,26,-245.38135528564453,,,
2018,11,27,18,24,38,30,-245.52440643310547,,,
2018,11,27,18,24,38,34,-245.59879302978516,7977.0,4294965160.0,6027.0
2018,11,27,18,24,38,38,-245.4242706298828,,,
2018,11,27,18,24,38,42,-245.61595916748047,,,
2018,11,27,18,24,38,45,-245.8047866821289,,,
2018,11,27,18,24,38,49,-245.92208862304688,,,
2018,11,27,18,24,38,53,-245.88489532470703,7957.0,4294965238.0,6027.0
2018,11,27,18,24,38,57,-245.70751190185547,,,
2018,11,27,18,24,38,61,-245.62740325927734,,,
2018,11,27,18,24,38,65,-245.6960678100586,,,
2018,11,27,18,24,38,69,-245.77045440673828,,,
2018,11,27,18,24,38,73,-245.91064453125,7879.0,4294965238.0,5968.0
2018,11,27,18,24,38,77,-245.80764770507812,,,
2018,11,27,18,24,38,81,-245.68462371826172,,,
2018,11,27,18,24,38,85,-245.5158233642578,,,
2018,11,27,18,24,38,88,-245.60165405273438,,,
2018,11,27,18,24,38,92,-245.62454223632812,7879.0,4294965180.0,6066.0
2018,11,27,18,24,38,96,-245.6960678100586,,,
2018,11,27,18,24,38,100,-245.53585052490234,,,
2018,11,27,18,24,38,104,-245.6989288330078,,,
2018,11,27,18,24,38,108,-245.55587768554688,,,
2018,11,27,18,24,38,112,-245.0408935546875,8016.0,4294965160.0,6007.0
2018,11,27,18,24,38,116,-243.10970306396484,,,
2018,11,27,18,24,38,120,-241.47891998291016,,,
2018,11,27,18,24,38,124,-239.5334243774414,,,
2018,11,27,18,24,38,128,-235.58521270751953,,,
2018,11,27,18,24,38,131,-229.2337417602539,7840.0,4294965180.0,6046.0
2018,11,27,18,24,38,135,-222.94235229492188,,,
2018,11,27,18,24,38,139,-222.65625,,,
2018,11,27,18,24,38,143,-229.62284088134766,,,
2018,11,27,18,24,38,147,-233.7656021118164,,,
2018,11,27,18,24,38,151,-237.1501922607422,7879.0,4294965042.0,6085.0
2018,11,27,18,24,38,155,-246.1395263671875,,,
2018,11,27,18,24,38,159,-247.93338775634766,,,
2018,11,27,18,24,38,163,-245.4986572265625,,,
2018,11,27,18,24,38,167,-244.04239654541016,,,
2018,11,27,18,24,38,170,-243.7305450439453,7761.0,4294964984.0,6027.0
2018,11,27,18,24,38,174,-243.75629425048828,,,
2018,11,27,18,24,38,178,-244.54879760742188,,,
2018,11,27,18,24,38,182,-244.68326568603516,,,
2018,11,27,18,24,38,186,-244.77767944335938,,,
2018,11,27,18,24,38,190,-245.02944946289062,7781.0,4294965180.0,6105.0
2018,11,27,18,24,38,194,-245.1009750366211,,,
2018,11,27,18,24,38,198,-245.04947662353516,,,
2018,11,27,18,24,38,202,-244.98653411865234,,,
2018,11,27,18,24,38,206,-244.9321746826172,,,
2018,11,27,18,24,38,210,-245.07522583007812,7918.0,4294965062.0,6066.0
2018,11,27,18,24,38,213,-245.1639175415039,,,
2018,11,27,18,24,38,217,-244.85206604003906,,,
2018,11,27,18,24,38,221,-244.83776092529297,,,
2018,11,27,18,24,38,225,-244.80342864990234,,,
2018,11,27,18,24,38,229,-244.77767944335938,7957.0,4294965180.0,6027.0
2018,11,27,18,24,38,233,-244.76909637451172,,,
2018,11,27,18,24,38,237,-244.57740783691406,,,
2018,11,27,18,24,38,241,-244.49729919433594,,,
2018,11,27,18,24,38,245,-244.3857192993164,,,
2018,11,27,18,24,38,249,-244.4143295288086,7898.0,4294965180.0,6115.0
2018,11,27,18,24,38,253,-244.3685531616211,,,
2018,11,27,18,24,38,256,-244.21119689941406,,,
2018,11,27,18,24,38,260,-243.96800994873047,,,
2018,11,27,18,24,38,264,-243.8793182373047,,,
2018,11,27,18,24,38,268,-243.82495880126953,7957.0,4294965101.0,6115.0
2018,11,27,18,24,38,272,-243.82495880126953,,,
2018,11,27,18,24,38,276,-243.18408966064453,,,
2018,11,27,18,24,38,280,-243.20697784423828,,,
2018,11,27,18,24,38,284,-243.0267333984375,,,
2018,11,27,18,24,38,288,-243.02959442138672,7859.0,4294965101.0,6085.0
2018,11,27,18,24,38,292,-243.00098419189453,,,
2018,11,27,18,24,38,295,-242.89226531982422,,,
2018,11,27,18,24,38,299,-242.71774291992188,,,
2018,11,27,18,24,38,303,-242.62332916259766,,,
2018,11,27,18,24,38,307,-242.52891540527344,7781.0,4294965160.0,6066.0
2018,11,27,18,24,38,311,-242.61188507080078,,,
2018,11,27,18,24,38,315,-242.48027801513672,,,
2018,11,27,18,24,38,319,-242.29145050048828,,,
2018,11,27,18,24,38,323,-242.17700958251953,,,
2018,11,27,18,24,38,327,-242.156982421875,7840.0,4294965101.0,6085.0
2018,11,27,18,24,38,331,-242.2313690185547,,,
2018,11,27,18,24,38,335,-242.32864379882812,,,
2018,11,27,18,24,38,338,-242.34294891357422,,,
2018,11,27,18,24,38,342,-242.06256866455078,,,
2018,11,27,18,24,38,346,-242.28286743164062,7957.0,4294965042.0,6134.0
2018,11,27,18,24,38,350,-242.52605438232422,,,
2018,11,27,18,24,38,354,-242.78640747070312,,,
2018,11,27,18,24,38,358,-242.9208755493164,,,
2018,11,27,18,24,38,362,-242.97809600830078,,,
2018,11,27,18,24,38,366,-243.255615234375,7879.0,4294965101.0,6154.0
2018,11,27,18,24,38,370,-243.58749389648438,,,
2018,11,27,18,24,38,374,-243.8678741455078,,,
2018,11,27,18,24,38,378,-244.04525756835938,,,
2018,11,27,18,24,38,381,-244.14539337158203,,,
2018,11,27,18,24,38,385,-244.25411224365234,7898.0,4294965062.0,6046.0
2018,11,27,18,24,38,389,-244.48585510253906,,,
2018,11,27,18,24,38,393,-244.6432113647461,,,
2018,11,27,18,24,38,397,-244.53449249267578,,,
2018,11,27,18,24,38,401,-244.52590942382812,,,
2018,11,27,18,24,38,405,-244.69470977783203,7859.0,4294965042.0,6105.0
2018,11,27,18,24,38,409,-244.85492706298828,,,
2018,11,27,18,24,38,413,-244.85206604003906,,,
2018,11,27,18,24,38,417,-244.68326568603516,,,
2018,11,27,18,24,38,420,-244.71473693847656,,,
2018,11,27,18,24,38,424,-244.63748931884766,7977.0,4294965258.0,5987.0
2018,11,27,18,24,38,428,-244.720458984375,,,
2018,11,27,18,24,38,432,-244.77195739746094,,,
2018,11,27,18,24,38,436,-244.72618103027344,,,
2018,11,27,18,24,38,440,-244.6460723876953,,,
2018,11,27,18,24,38,444,-244.54879760742188,7879.0,4294965160.0,6046.0
2018,11,27,18,24,38,448,-244.70043182373047,,,
2018,11,27,18,24,38,452,-244.8892593383789,,,
2018,11,27,18,24,38,456,-244.90642547607422,,,
2018,11,27,18,24,38,460,-244.72618103027344,,,
2018,11,27,18,24,38,463,-244.7061538696289,7938.0,4294965160.0,6046.0
2018,11,27,18,24,38,467,-244.86637115478516,,,
2018,11,27,18,24,38,471,-244.8749542236328,,,
2018,11,27,18,24,38,475,-244.7347640991211,,,
2018,11,27,18,24,38,479,-244.76051330566406,,,
2018,11,27,18,24,38,483,-244.70901489257812,7918.0,4294965199.0,6134.0
2018,11,27,18,24,38,487,-244.6746826171875,,,
2018,11,27,18,24,38,491,-244.77195739746094,,,
2018,11,27,18,24,38,495,-244.7376251220703,,,
2018,11,27,18,24,38,499,-244.6002960205078,,,
2018,11,27,18,24,38,503,-244.46582794189453,7918.0,4294965199.0,6115.0
2018,11,27,18,24,38,506,-244.49729919433594,,,
2018,11,27,18,24,38,510,-244.720458984375,,,
2018,11,27,18,24,38,514,-244.66896057128906,,,
2018,11,27,18,24,38,518,-244.5201873779297,,,
2018,11,27,18,24,38,522,-244.537353515625,7977.0,4294965101.0,6027.0
2018,11,27,18,24,38,526,-244.53449249267578,,,
2018,11,27,18,24,38,530,-244.64893341064453,,,
2018,11,27,18,24,38,534,-244.44293975830078,,,
2018,11,27,18,24,38,538,-244.66323852539062,,,
2018,11,27,18,24,38,542,-244.59457397460938,7977.0,4294965258.0,6085.0
2018,11,27,18,24,38,545,-244.63176727294922,,,
2018,11,27,18,24,38,549,-244.72618103027344,,,
2018,11,27,18,24,38,553,-244.720458984375,,,
2018,11,27,18,24,38,557,-244.66609954833984,,,
2018,11,27,18,24,38,561,-244.58599090576172,8016.0,4294965082.0,6066.0
2018,11,27,18,24,38,565,-244.5516586303711,,,
2018,11,27,18,24,38,569,-244.71759796142578,,,
2018,11,27,18,24,38,573,-244.80342864990234,,,
2018,11,27,18,24,38,577,-244.83489990234375,,,
2018,11,27,18,24,38,581,-244.78626251220703,7938.0,4294965082.0,6085.0
2018,11,27,18,24,38,585,-244.81201171875,,,
2018,11,27,18,24,38,588,-244.9321746826172,,,
2018,11,27,18,24,38,592,-245.09525299072266,,,
2018,11,27,18,24,38,596,-244.83776092529297,,,
2018,11,27,18,24,38,600,-244.71473693847656,7898.0,4294965140.0,6085.0
2018,11,27,18,24,38,604,-244.9350357055664,,,
2018,11,27,18,24,38,608,-245.01800537109375,,,
2018,11,27,18,24,38,612,-245.18108367919922,,,
2018,11,27,18,24,38,616,-245.08380889892578,,,
2018,11,27,18,24,38,620,-245.0580596923828,7879.0,4294965180.0,6154.0
2018,11,27,18,24,38,624,-245.15247344970703,,,
2018,11,27,18,24,38,628,-245.13816833496094,,,
2018,11,27,18,24,38,631,-245.34130096435547,,,
2018,11,27,18,24,38,635,-245.269775390625,,,
2018,11,27,18,24,38,639,-245.17822265625,7977.0,4294965199.0,6085.0
2018,11,27,18,24,38,643,-245.22686004638672,,,
2018,11,27,18,24,38,647,-245.35846710205078,,,
2018,11,27,18,24,38,651,-245.38421630859375,,,
2018,11,27,18,24,38,655,-245.3012466430664,,,
2018,11,27,18,24,38,659,-245.17250061035156,7898.0,4294965160.0,6105.0
2018,11,27,18,24,38,663,-245.33557891845703,,,
2018,11,27,18,24,38,667,-245.4700469970703,,,
2018,11,27,18,24,38,670,-245.4071044921875,,,
2018,11,27,18,24,38,674,-245.45574188232422,,,
2018,11,27,18,24,38,678,-245.33843994140625,7918.0,4294965121.0,6066.0
2018,11,27,18,24,38,682,-245.2411651611328,,,
2018,11,27,18,24,38,686,-245.4357147216797,,,
2018,11,27,18,24,38,690,-245.56446075439453,,,
2018,11,27,18,24,38,694,-245.6502914428711,,,
2018,11,27,18,24,38,698,-245.54443359375,,,
2018,11,27,18,24,38,702,-245.49007415771484,,,
2018,11,27,18,24,38,706,-245.5759048461914,,,
2018,11,27,18,24,38,710,-245.6674575805664,,,
2018,11,27,18,24,38,713,-245.62740325927734,,,
2018,11,27,18,24,38,717,-245.6674575805664,6007.0,7957.0,4294965180.0
2018,11,27,18,24,38,721,-245.55301666259766,,,
2018,11,27,18,24,38,725,-245.81050872802734,,,
2018,11,27,18,24,38,729,-245.97930908203125,,,
2018,11,27,18,24,38,733,-245.91922760009766,,,
2018,11,27,18,24,38,737,-245.76759338378906,6007.0,7879.0,4294965219.0
2018,11,27,18,24,38,741,-245.70751190185547,,,
2018,11,27,18,24,38,745,-245.73612213134766,,,
2018,11,27,18,24,38,749,-245.81336975097656,,,
2018,11,27,18,24,38,753,-245.819091796875,,,
2018,11,27,18,24,38,756,-245.77617645263672,6007.0,7918.0,4294965121.0
2018,11,27,18,24,38,760,-245.56446075439453,,,
2018,11,27,18,24,38,764,-245.5759048461914,,,
2018,11,27,18,24,38,768,-245.65887451171875,,,
2018,11,27,18,24,38,772,-245.67317962646484,,,
2018,11,27,18,24,38,776,-245.45001983642578,5968.0,7898.0,4294965121.0
2018,11,27,18,24,38,780,-245.4385757446289,,,
2018,11,27,18,24,38,784,-245.47863006591797,,,
2018,11,27,18,24,38,788,-245.5272674560547,,,
2018,11,27,18,24,38,792,-245.50724029541016,,,
2018,11,27,18,24,38,795,-245.4843521118164,6066.0,7918.0,4294965082.0
2018,11,27,18,24,38,799,-245.32413482666016,,,
2018,11,27,18,24,38,803,-245.269775390625,,,
2018,11,27,18,24,38,807,-245.4843521118164,,,
2018,11,27,18,24,38,811,-245.51868438720703,,,
2018,11,27,18,24,38,815,-245.52154541015625,5968.0,7977.0,4294965160.0
2018,11,27,18,24,38,819,-245.3927993774414,,,
2018,11,27,18,24,38,823,-245.4671859741211,,,
2018,11,27,18,24,38,827,-245.54157257080078,,,
2018,11,27,18,24,38,831,-245.67604064941406,,,
2018,11,27,18,24,38,835,-245.55587768554688,6027.0,7957.0,4294965219.0
2018,11,27,18,24,38,838,-245.46146392822266,,,
2018,11,27,18,24,38,842,-245.39852142333984,,,
2018,11,27,18,24,38,846,-245.4242706298828,,,
2018,11,27,18,24,38,850,-245.67317962646484,,,
2018,11,27,18,24,38,854,-246.35982513427734,6007.0,7977.0,4294965121.0
2018,11,27,18,24,38,858,-246.02794647216797,,,
2018,11,27,18,24,38,862,-245.8047866821289,,,
2018,11,27,18,24,38,866,-245.69320678710938,,,
2018,11,27,18,24,38,870,-245.7876205444336,,,
2018,11,27,18,24,38,874,-245.65887451171875,5948.0,7957.0,4294965121.0
2018,11,27,18,24,38,878,-245.3927993774414,,,
2018,11,27,18,24,38,881,-245.2983856201172,,,
2018,11,27,18,24,38,885,-245.35846710205078,,,
2018,11,27,18,24,38,889,-245.06664276123047,,,
2018,11,27,18,24,38,893,-244.53449249267578,5968.0,7898.0,4294965003.0
2018,11,27,18,24,38,897,-244.49443817138672,,,
2018,11,27,18,24,38,901,-244.74048614501953,,,
2018,11,27,18,24,38,905,-244.9808120727539,,,
2018,11,27,18,24,38,909,-245.21827697753906,,,
2018,11,27,18,24,38,913,-245.50437927246094,5948.0,7938.0,4294965121.0
2018,11,27,18,24,38,917,-245.41282653808594,,,
2018,11,27,18,24,38,920,-245.4385757446289,,,
2018,11,27,18,24,38,924,-245.4671859741211,,,
2018,11,27,18,24,38,928,-245.59879302978516,,,
2018,11,27,18,24,38,932,-245.84484100341797,5909.0,7957.0,4294965160.0
2018,11,27,18,24,38,936,-246.0193634033203,,,
2018,11,27,18,24,38,940,-245.8362579345703,,,
2018,11,27,18,24,38,944,-245.8477020263672,,,
2018,11,27,18,24,38,948,-245.92208862304688,,,
2018,11,27,18,24,38,952,-245.9421157836914,5948.0,7996.0,4294965199.0
2018,11,27,18,24,38,956,-245.91350555419922,,,
2018,11,27,18,24,38,960,-245.8362579345703,,,
2018,11,27,18,24,38,963,-245.8791732788086,,,
2018,11,27,18,24,38,967,-245.92208862304688,,,
2018,11,27,18,24,38,971,-246.03652954101562,5870.0,8055.0,4294965140.0
2018,11,27,18,24,38,975,-245.9392547607422,,,
2018,11,27,18,24,38,979,-245.83911895751953,,,
2018,11,27,18,24,38,983,-245.61023712158203,,,
2018,11,27,18,24,38,987,-245.64456939697266,,,
2018,11,27,18,24,38,991,-245.7275390625,5948.0,8016.0,4294965042.0
2018,11,27,18,24,38,995,-245.92208862304688,,,
2018,11,27,18,24,38,999,-245.5129623413086,,,
2018,11,27,18,24,39,3,-244.42291259765625,,,
2018,11,27,18,24,39,6,-242.56324768066406,,,
2018,11,27,18,24,39,10,-240.69499969482422,5850.0,7918.0,4294965199.0
2018,11,27,18,24,39,14,-238.36612701416016,,,
2018,11,27,18,24,39,18,-233.7026596069336,,,
2018,11,27,18,24,39,22,-226.97067260742188,,,
2018,11,27,18,24,39,26,-221.9409942626953,,,
2018,11,27,18,24,39,30,-223.8922119140625,5987.0,8016.0,4294965003.0
2018,11,27,18,24,39,34,-231.3995361328125,,,
2018,11,27,18,24,39,38,-235.62240600585938,,,
2018,11,27,18,24,39,42,-239.65930938720703,,,
2018,11,27,18,24,39,45,-247.95913696289062,,,
2018,11,27,18,24,39,49,-248.01063537597656,5987.0,7957.0,4294965003.0
2018,11,27,18,24,39,53,-245.45001983642578,,,
2018,11,27,18,24,39,57,-244.27127838134766,,,
2018,11,27,18,24,39,61,-243.7734603881836,,,
2018,11,27,18,24,39,65,-244.20833587646484,,,
2018,11,27,18,24,39,69,-244.8291778564453,5870.0,7859.0,4294965160.0
2018,11,27,18,24,39,73,-245.1038360595703,,,
2018,11,27,18,24,39,77,-244.93789672851562,,,
2018,11,27,18,24,39,81,-245.05233764648438,,,
2018,11,27,18,24,39,85,-245.10955810546875,,,
2018,11,27,18,24,39,88,-245.2239990234375,5948.0,8075.0,4294964944.0
2018,11,27,18,24,39,92,-245.269775390625,,,
2018,11,27,18,24,39,96,-245.14389038085938,,,
2018,11,27,18,24,39,100,-245.12386322021484,,,
2018,11,27,18,24,39,104,-244.9779510498047,,,
2018,11,27,18,24,39,108,-244.9779510498047,5968.0,8055.0,4294965101.0
2018,11,27,18,24,39,112,-245.09239196777344,,,
2018,11,27,18,24,39,116,-244.94361877441406,,,
2018,11,27,18,24,39,120,-244.9350357055664,,,
2018,11,27,18,24,39,124,-244.81201171875,,,
2018,11,27,18,24,39,128,-244.71187591552734,5948.0,7977.0,4294965082.0
2018,11,27,18,24,39,131,-244.72618103027344,,,
2018,11,27,18,24,39,135,-244.51732635498047,,,
2018,11,27,18,24,39,139,-244.4314956665039,,,
2018,11,27,18,24,39,143,-244.2941665649414,,,
2018,11,27,18,24,39,147,-244.21405792236328,6027.0,8036.0,4294964964.0
2018,11,27,18,24,39,151,-244.19689178466797,,,
2018,11,27,18,24,39,155,-244.11392211914062,,,
2018,11,27,18,24,39,159,-243.8220977783203,,,
2018,11,27,18,24,39,163,-243.71051788330078,,,
2018,11,27,18,24,39,167,-243.62754821777344,5987.0,7879.0,4294965003.0
2018,11,27,18,24,39,170,-243.81351470947266,,,
2018,11,27,18,24,39,174,-243.30997467041016,,,
2018,11,27,18,24,39,178,-243.16978454589844,,,
2018,11,27,18,24,39,182,-243.01815032958984,,,
2018,11,27,18,24,39,186,-242.97523498535156,5968.0,7879.0,4294965101.0
2018,11,27,18,24,39,190,-242.97809600830078,,,
2018,11,27,18,24,39,194,-242.77496337890625,,,
2018,11,27,18,24,39,198,-242.65766143798828,,,
2018,11,27,18,24,39,202,-242.40589141845703,,,
2018,11,27,18,24,39,206,-242.36583709716797,6046.0,7918.0,4294965101.0
2018,11,27,18,24,39,210,-242.3543930053711,,,
2018,11,27,18,24,39,213,-242.3715591430664,,,
2018,11,27,18,24,39,217,-242.36583709716797,,,
2018,11,27,18,24,39,221,-242.23709106445312,,,
2018,11,27,18,24,39,225,-242.1855926513672,5948.0,8016.0,4294964925.0
2018,11,27,18,24,39,229,-242.45166778564453,,,
2018,11,27,18,24,39,233,-242.56324768066406,,,
2018,11,27,18,24,39,237,-242.53177642822266,,,
2018,11,27,18,24,39,241,-242.47169494628906,,,
2018,11,27,18,24,39,245,-242.7206039428711,5948.0,7957.0,4294964944.0
2018,11,27,18,24,39,249,-243.06392669677734,,,
2018,11,27,18,24,39,253,-243.29853057861328,,,
2018,11,27,18,24,39,256,-243.38436126708984,,,
2018,11,27,18,24,39,260,-243.55316162109375,,,
2018,11,27,18,24,39,264,-243.8192367553711,6027.0,7918.0,4294964984.0
2018,11,27,18,24,39,268,-244.1082000732422,,,
2018,11,27,18,24,39,272,-244.3084716796875,,,
2018,11,27,18,24,39,276,-244.48299407958984,,,
2018,11,27,18,24,39,280,-244.45724487304688,,,
2018,11,27,18,24,39,284,-244.35710906982422,6007.0,7957.0,4294965082.0
2018,11,27,18,24,39,288,-244.63176727294922,,,
2018,11,27,18,24,39,292,-244.60315704345703,,,
2018,11,27,18,24,39,295,-244.70901489257812,,,
2018,11,27,18,24,39,299,-244.4915771484375,,,
2018,11,27,18,24,39,303,-244.73190307617188,5968.0,7898.0,4294965082.0
2018,11,27,18,24,39,307,-244.67754364013672,,,
2018,11,27,18,24,39,311,-244.76337432861328,,,
2018,11,27,18,24,39,315,-244.62032318115234,,,
2018,11,27,18,24,39,319,-244.54593658447266,,,
2018,11,27,18,24,39,323,-244.51732635498047,5948.0,7898.0,4294965042.0
2018,11,27,18,24,39,327,-244.6432113647461,,,
2018,11,27,18,24,39,331,-244.83489990234375,,,
2018,11,27,18,24,39,335,-244.80915069580078,,,
2018,11,27,18,24,39,338,-244.69757080078125,,,
2018,11,27,18,24,39,342,-244.69470977783203,5948.0,7957.0,4294964984.0
2018,11,27,18,24,39,346,-244.66896057128906,,,
2018,11,27,18,24,39,350,-244.9350357055664,,,
2018,11,27,18,24,39,354,-244.83776092529297,,,
2018,11,27,18,24,39,358,-244.8892593383789,,,
2018,11,27,18,24,39,362,-244.85206604003906,5968.0,7957.0,4294965042.0
2018,11,27,18,24,39,366,-244.91214752197266,,,
2018,11,27,18,24,39,370,-245.1038360595703,,,
2018,11,27,18,24,39,374,-245.03231048583984,,,
2018,11,27,18,24,39,378,-245.05233764648438,,,
2018,11,27,18,24,39,381,-244.90070343017578,5909.0,7898.0,4294965101.0
2018,11,27,18,24,39,385,-244.92645263671875,,,
2018,11,27,18,24,39,389,-245.0265884399414,,,
2018,11,27,18,24,39,393,-244.96078491210938,,,
2018,11,27,18,24,39,397,-244.82345581054688,,,
2018,11,27,18,24,39,401,-244.68612670898438,5968.0,7918.0,4294965042.0
2018,11,27,18,24,39,405,-244.5831298828125,,,
2018,11,27,18,24,39,409,-244.76051330566406,,,
2018,11,27,18,24,39,413,-244.84920501708984,,,
2018,11,27,18,24,39,417,-244.74048614501953,,,
2018,11,27,18,24,39,420,-244.63748931884766,5987.0,8016.0,4294965082.0
2018,11,27,18,24,39,424,-244.60601806640625,,,
2018,11,27,18,24,39,428,-244.42577362060547,,,
2018,11,27,18,24,39,432,-244.4772720336914,,,
2018,11,27,18,24,39,436,-244.45438385009766,,,
2018,11,27,18,24,39,440,-244.42291259765625,5968.0,7898.0,4294964984.0
2018,11,27,18,24,39,444,-244.51160430908203,,,
2018,11,27,18,24,39,448,-244.57454681396484,,,
2018,11,27,18,24,39,452,-244.75479125976562,,,
2018,11,27,18,24,39,456,-244.7805404663086,,,
2018,11,27,18,24,39,460,-244.62318420410156,5968.0,7898.0,4294964925.0
2018,11,27,18,24,39,463,-244.68040466308594,,,
2018,11,27,18,24,39,467,-244.78912353515625,,,
2018,11,27,18,24,39,471,-245.0695037841797,,,
2018,11,27,18,24,39,475,-245.08380889892578,,,
2018,11,27,18,24,39,479,-244.86923217773438,5929.0,7957.0,4294964886.0
2018,11,27,18,24,39,483,-245.0094223022461,,,
2018,11,27,18,24,39,487,-245.0723648071289,,,
2018,11,27,18,24,39,491,-245.18108367919922,,,
2018,11,27,18,24,39,495,-245.1610565185547,,,
2018,11,27,18,24,39,499,-244.9808120727539,5929.0,7918.0,4294964984.0
2018,11,27,18,24,39,503,-245.06092071533203,,,
2018,11,27,18,24,39,506,-245.12958526611328,,,
2018,11,27,18,24,39,510,-245.27549743652344,,,
2018,11,27,18,24,39,514,-245.3441619873047,,,
2018,11,27,18,24,39,518,-245.27263641357422,5948.0,7898.0,4294965003.0
2018,11,27,18,24,39,522,-245.34130096435547,,,
2018,11,27,18,24,39,526,-245.26119232177734,,,
2018,11,27,18,24,39,530,-245.52154541015625,,,
2018,11,27,18,24,39,534,-245.5301284790039,,,
2018,11,27,18,24,39,538,-245.39566040039062,6007.0,7800.0,4294964984.0
2018,11,27,18,24,39,542,-245.41282653808594,,,
2018,11,27,18,24,39,545,-245.51010131835938,,,
2018,11,27,18,24,39,549,-245.64456939697266,,,
2018,11,27,18,24,39,553,-245.53585052490234,,,
2018,11,27,18,24,39,557,-245.18680572509766,5987.0,7859.0,4294964944.0
2018,11,27,18,24,39,561,-245.23544311523438,,,
2018,11,27,18,24,39,565,-245.31269073486328,,,
2018,11,27,18,24,39,569,-245.4986572265625,,,
2018,11,27,18,24,39,573,-245.58734893798828,,,
2018,11,27,18,24,39,577,-245.56446075439453,5968.0,7938.0,4294964925.0
2018,11,27,18,24,39,581,-245.51010131835938,,,
2018,11,27,18,24,39,585,-245.35560607910156,,,
2018,11,27,18,24,39,588,-245.52440643310547,,,
2018,11,27,18,24,39,592,-245.6216812133789,,,
2018,11,27,18,24,39,596,-245.58734893798828,5929.0,7898.0,4294964964.0
2018,11,27,18,24,39,600,-245.54157257080078,,,
2018,11,27,18,24,39,604,-245.59307098388672,,,
2018,11,27,18,24,39,608,-245.7447052001953,,,
2018,11,27,18,24,39,612,-245.76187133789062,,,
2018,11,27,18,24,39,616,-245.6989288330078,6007.0,7879.0,4294964944.0
2018,11,27,18,24,39,620,-245.38135528564453,,,
2018,11,27,18,24,39,624,-245.10955810546875,,,
2018,11,27,18,24,39,628,-245.35560607910156,,,
2018,11,27,18,24,39,631,-245.38135528564453,,,
2018,11,27,18,24,39,635,-245.4385757446289,5968.0,7879.0,4294964925.0
2018,11,27,18,24,39,639,-245.35846710205078,,,
2018,11,27,18,24,39,643,-245.41568756103516,,,
2018,11,27,18,24,39,647,-245.48721313476562,,,
2018,11,27,18,24,39,651,-245.4671859741211,,,
2018,11,27,18,24,39,655,-245.51010131835938,5987.0,7879.0,4294964984.0
2018,11,27,18,24,39,659,-245.44429779052734,,,
2018,11,27,18,24,39,663,-245.5301284790039,,,
2018,11,27,18,24,39,667,-245.6188201904297,,,
2018,11,27,18,24,39,670,-245.62740325927734,,,
2018,11,27,18,24,39,674,-245.67604064941406,5909.0,8036.0,4294965023.0
2018,11,27,18,24,39,678,-245.62454223632812,,,
2018,11,27,18,24,39,682,-245.5730438232422,,,
2018,11,27,18,24,39,686,-245.59593200683594,,,
2018,11,27,18,24,39,690,-245.6531524658203,,,
2018,11,27,18,24,39,694,-245.67604064941406,,,
2018,11,27,18,24,39,698,-245.63884735107422,,,
2018,11,27,18,24,39,702,-245.5272674560547,,,
2018,11,27,18,24,39,706,-245.67604064941406,,,
2018,11,27,18,24,39,710,-245.7561492919922,,,
2018,11,27,18,24,39,713,-245.83911895751953,5929.0,8055.0,4294964905.0
2018,11,27,18,24,39,717,-245.7275390625,,,
2018,11,27,18,24,39,721,-245.59879302978516,,,
2018,11,27,18,24,39,725,-245.73326110839844,,,
2018,11,27,18,24,39,729,-245.86200714111328,,,
2018,11,27,18,24,39,733,-245.86772918701172,5850.0,7977.0,4294965042.0
2018,11,27,18,24,39,737,-245.7447052001953,,,
2018,11,27,18,24,39,741,-245.68748474121094,,,
2018,11,27,18,24,39,745,-245.67604064941406,,,
2018,11,27,18,24,39,749,-245.9392547607422,,,
2018,11,27,18,24,39,753,-245.94783782958984,5889.0,8016.0,4294964984.0
2018,11,27,18,24,39,756,-245.78475952148438,,,
2018,11,27,18,24,39,760,-245.7447052001953,,,
2018,11,27,18,24,39,764,-245.73898315429688,,,
2018,11,27,18,24,39,768,-245.7561492919922,,,
2018,11,27,18,24,39,772,-245.64456939697266,5909.0,8094.0,4294964984.0
2018,11,27,18,24,39,776,-245.38421630859375,,,
2018,11,27,18,24,39,780,-245.27835845947266,,,
2018,11,27,18,24,39,784,-245.34130096435547,,,
2018,11,27,18,24,39,788,-245.33557891845703,,,
2018,11,27,18,24,39,792,-245.06092071533203,5889.0,7977.0,4294964984.0
2018,11,27,18,24,39,795,-244.57740783691406,,,
2018,11,27,18,24,39,799,-244.60315704345703,,,
2018,11,27,18,24,39,803,-244.91214752197266,,,
2018,11,27,18,24,39,807,-245.17536163330078,,,
2018,11,27,18,24,39,811,-245.35846710205078,5909.0,8036.0,4294964964.0
2018,11,27,18,24,39,815,-245.24974822998047,,,
2018,11,27,18,24,39,819,-245.09811401367188,,,
2018,11,27,18,24,39,823,-245.22972106933594,,,
2018,11,27,18,24,39,827,-245.4071044921875,,,
2018,11,27,18,24,39,831,-245.4843521118164,5948.0,8016.0,4294965062.0
2018,11,27,18,24,39,835,-245.75042724609375,,,
2018,11,27,18,24,39,838,-245.7275390625,,,
2018,11,27,18,24,39,842,-245.75042724609375,,,
2018,11,27,18,24,39,846,-245.7904815673828,,,
2018,11,27,18,24,39,850,-245.86772918701172,5850.0,7996.0,4294965003.0
2018,11,27,18,24,39,854,-245.76187133789062,,,
2018,11,27,18,24,39,858,-245.69320678710938,,,
2018,11,27,18,24,39,862,-245.7590103149414,,,
2018,11,27,18,24,39,866,-245.84484100341797,,,
2018,11,27,18,24,39,870,-245.9278106689453,5811.0,7996.0,4294964944.0
2018,11,27,18,24,39,874,-245.89920043945312,,,
2018,11,27,18,24,39,878,-245.85342407226562,,,
2018,11,27,18,24,39,881,-245.75042724609375,,,
2018,11,27,18,24,39,885,-245.7132339477539,,,
2018,11,27,18,24,39,889,-245.91636657714844,5850.0,8016.0,4294964964.0
2018,11,27,18,24,39,893,-245.87345123291016,,,
2018,11,27,18,24,39,897,-246.02794647216797,,,
2018,11,27,18,24,39,901,-245.73612213134766,,,
2018,11,27,18,24,39,905,-244.68612670898438,,,
2018,11,27,18,24,39,909,-242.9208755493164,5850.0,7996.0,4294964886.0
2018,11,27,18,24,39,913,-241.15848541259766,,,
2018,11,27,18,24,39,917,-238.60931396484375,,,
2018,11,27,18,24,39,920,-233.9029312133789,,,
2018,11,27,18,24,39,924,-227.0336151123047,,,
2018,11,27,18,24,39,928,-222.08118438720703,5968.0,7938.0,4294965121.0
2018,11,27,18,24,39,932,-224.23839569091797,,,
2018,11,27,18,24,39,936,-231.54544830322266,,,
2018,11,27,18,24,39,940,-235.1531982421875,,,
2018,11,27,18,24,39,944,-239.54200744628906,,,
2018,11,27,18,24,39,948,-247.55001068115234,5948.0,7800.0,4294965082.0
2018,11,27,18,24,39,952,-247.30396270751953,,,
2018,11,27,18,24,39,956,-244.77195739746094,,,
2018,11,27,18,24,39,960,-243.94512176513672,,,
2018,11,27,18,24,39,963,-243.62754821777344,,,
2018,11,27,18,24,39,967,-244.4000244140625,5889.0,7938.0,4294964680.0
2018,11,27,18,24,39,971,-244.88353729248047,,,
2018,11,27,18,24,39,975,-244.95220184326172,,,
2018,11,27,18,24,39,979,-245.00656127929688,,,
2018,11,27,18,24,39,983,-245.04947662353516,,,
2018,11,27,18,24,39,987,-245.1324462890625,5889.0,8055.0,4294965023.0
2018,11,27,18,24,39,991,-245.2869415283203,,,
2018,11,27,18,24,39,995,-245.25833129882812,,,
2018,11,27,18,24,39,999,-245.1467514038086,,,
2018,11,27,18,24,40,3,-245.08953094482422,,,
2018,11,27,18,24,40,6,-245.31269073486328,5929.0,7918.0,4294964944.0
2018,11,27,18,24,40,10,-245.33557891845703,,,
2018,11,27,18,24,40,14,-245.269775390625,,,
2018,11,27,18,24,40,18,-245.1152801513672,,,
2018,11,27,18,24,40,22,-244.94075775146484,,,
2018,11,27,18,24,40,26,-244.86923217773438,5889.0,7938.0,4294964886.0
2018,11,27,18,24,40,30,-244.94647979736328,,,
2018,11,27,18,24,40,34,-244.7519302368164,,,
2018,11,27,18,24,40,38,-244.54307556152344,,,
2018,11,27,18,24,40,42,-244.40288543701172,,,
2018,11,27,18,24,40,45,-244.3399429321289,5987.0,7938.0,4294964886.0
2018,11,27,18,24,40,49,-244.34280395507812,,,
2018,11,27,18,24,40,53,-244.19403076171875,,,
2018,11,27,18,24,40,57,-243.97659301757812,,,
2018,11,27,18,24,40,61,-243.83926391601562,,,
2018,11,27,18,24,40,65,-243.77059936523438,6066.0,7781.0,4294964856.0
2018,11,27,18,24,40,69,-243.84212493896484,,,
2018,11,27,18,24,40,73,-244.1854476928711,,,
2018,11,27,18,24,40,77,-243.7906265258789,,,
2018,11,27,18,24,40,81,-243.55030059814453,,,
2018,11,27,18,24,40,85,-243.39580535888672,6046.0,7879.0,4294964905.0
2018,11,27,18,24,40,88,-243.2727813720703,,,
2018,11,27,18,24,40,92,-243.2098388671875,,,
2018,11,27,18,24,40,96,-242.91515350341797,,,
2018,11,27,18,24,40,100,-242.85221099853516,,,
2018,11,27,18,24,40,104,-242.70057678222656,6046.0,7938.0,4294964886.0
2018,11,27,18,24,40,108,-242.70915985107422,,,
2018,11,27,18,24,40,112,-242.7663803100586,,,
2018,11,27,18,24,40,116,-242.61760711669922,,,
2018,11,27,18,24,40,120,-242.65193939208984,,,
2018,11,27,18,24,40,124,-242.63477325439453,6046.0,7938.0,4294964944.0
2018,11,27,18,24,40,128,-242.7520751953125,,,
2018,11,27,18,24,40,131,-243.02101135253906,,,
2018,11,27,18,24,40,135,-242.89226531982422,,,
2018,11,27,18,24,40,139,-242.84076690673828,,,
2018,11,27,18,24,40,143,-243.1468963623047,5987.0,7859.0,4294964886.0
2018,11,27,18,24,40,147,-243.32714080810547,,,
2018,11,27,18,24,40,151,-243.66474151611328,,,
2018,11,27,18,24,40,155,-243.76201629638672,,,
2018,11,27,18,24,40,159,-243.97659301757812,,,
2018,11,27,18,24,40,163,-244.13394927978516,5987.0,7938.0,4294964797.0
2018,11,27,18,24,40,167,-244.5230484008789,,,
2018,11,27,18,24,40,170,-244.81201171875,,,
2018,11,27,18,24,40,174,-244.89498138427734,,,
2018,11,27,18,24,40,178,-244.98653411865234,,,
2018,11,27,18,24,40,182,-245.0695037841797,6007.0,7957.0,4294964984.0
2018,11,27,18,24,40,186,-245.1639175415039,,,
2018,11,27,18,24,40,190,-245.361328125,,,
2018,11,27,18,24,40,194,-245.4986572265625,,,
2018,11,27,18,24,40,198,-244.98653411865234,,,
2018,11,27,18,24,40,202,-244.9207305908203,5987.0,7820.0,4294964837.0
2018,11,27,18,24,40,206,-245.01800537109375,,,
2018,11,27,18,24,40,210,-245.0723648071289,,,
2018,11,27,18,24,40,213,-245.01514434814453,,,
2018,11,27,18,24,40,217,-244.95506286621094,,,
2018,11,27,18,24,40,221,-244.97222900390625,5909.0,7957.0,4294964886.0
2018,11,27,18,24,40,225,-244.91214752197266,,,
2018,11,27,18,24,40,229,-245.0237274169922,,,
2018,11,27,18,24,40,233,-245.12100219726562,,,
2018,11,27,18,24,40,237,-245.0695037841797,,,
2018,11,27,18,24,40,241,-244.88067626953125,5929.0,7996.0,4294964905.0
2018,11,27,18,24,40,245,-244.89784240722656,,,
2018,11,27,18,24,40,249,-245.11241912841797,,,
2018,11,27,18,24,40,253,-245.2383041381836,,,
2018,11,27,18,24,40,256,-245.1467514038086,,,
2018,11,27,18,24,40,260,-244.63176727294922,5909.0,7898.0,4294964925.0
2018,11,27,18,24,40,264,-244.76337432861328,,,
2018,11,27,18,24,40,268,-244.92359161376953,,,
2018,11,27,18,24,40,272,-245.08094787597656,,,
2018,11,27,18,24,40,276,-244.89498138427734,,,
2018,11,27,18,24,40,280,-244.94647979736328,5948.0,7938.0,4294964866.0
2018,11,27,18,24,40,284,-244.94647979736328,,,
2018,11,27,18,24,40,288,-245.1038360595703,,,
2018,11,27,18,24,40,292,-245.15247344970703,,,
2018,11,27,18,24,40,295,-245.05233764648438,,,
2018,11,27,18,24,40,299,-244.92359161376953,5889.0,8016.0,4294964944.0
2018,11,27,18,24,40,303,-244.9493408203125,,,
2018,11,27,18,24,40,307,-245.00083923339844,,,
2018,11,27,18,24,40,311,-245.12672424316406,,,
2018,11,27,18,24,40,315,-245.01514434814453,,,
2018,11,27,18,24,40,319,-244.8434829711914,5948.0,7957.0,4294965042.0
2018,11,27,18,24,40,323,-244.86351013183594,,,
2018,11,27,18,24,40,327,-245.1038360595703,,,
2018,11,27,18,24,40,331,-245.09239196777344,,,
2018,11,27,18,24,40,335,-245.0580596923828,,,
2018,11,27,18,24,40,338,-245.03231048583984,5929.0,7918.0,4294964886.0
2018,11,27,18,24,40,342,-244.91500854492188,,,
2018,11,27,18,24,40,346,-244.9636459350586,,,
2018,11,27,18,24,40,350,-245.07808685302734,,,
2018,11,27,18,24,40,354,-245.08953094482422,,,
2018,11,27,18,24,40,358,-244.99225616455078,5831.0,8055.0,4294964984.0
2018,11,27,18,24,40,362,-245.07522583007812,,,
2018,11,27,18,24,40,366,-245.16963958740234,,,
2018,11,27,18,24,40,370,-245.2869415283203,,,
2018,11,27,18,24,40,374,-245.30696868896484,,,
2018,11,27,18,24,40,378,-245.3298568725586,5791.0,8036.0,4294964925.0
2018,11,27,18,24,40,381,-245.31841278076172,,,
2018,11,27,18,24,40,385,-245.33843994140625,,,
2018,11,27,18,24,40,389,-245.2840805053711,,,
2018,11,27,18,24,40,393,-245.1467514038086,,,
2018,11,27,18,24,40,397,-245.24402618408203,5831.0,7938.0,4294964984.0
2018,11,27,18,24,40,401,-245.2068328857422,,,
2018,11,27,18,24,40,405,-245.35274505615234,,,
2018,11,27,18,24,40,409,-245.53871154785156,,,
2018,11,27,18,24,40,413,-245.58448791503906,,,
2018,11,27,18,24,40,417,-245.6073760986328,5850.0,8055.0,4294964905.0
2018,11,27,18,24,40,420,-245.56446075439453,,,
2018,11,27,18,24,40,424,-245.57018280029297,,,
2018,11,27,18,24,40,428,-245.68462371826172,,,
2018,11,27,18,24,40,432,-245.8477020263672,,,
2018,11,27,18,24,40,436,-245.69034576416016,5811.0,7996.0,4294964925.0
2018,11,27,18,24,40,440,-245.7132339477539,,,
2018,11,27,18,24,40,444,-245.71895599365234,,,
2018,11,27,18,24,40,448,-245.90492248535156,,,
2018,11,27,18,24,40,452,-246.13094329833984,,,
2018,11,27,18,24,40,456,-246.00505828857422,5811.0,8016.0,4294964964.0
2018,11,27,18,24,40,460,-246.1252212524414,,,
2018,11,27,18,24,40,463,-246.1080551147461,,,
2018,11,27,18,24,40,467,-246.15097045898438,,,
2018,11,27,18,24,40,471,-246.15097045898438,,,
2018,11,27,18,24,40,475,-246.08230590820312,5831.0,8016.0,4294964866.0
2018,11,27,18,24,40,479,-245.91350555419922,,,
2018,11,27,18,24,40,483,-246.01364135742188,,,
2018,11,27,18,24,40,487,-245.98217010498047,,,
2018,11,27,18,24,40,491,-246.16527557373047,,,
2018,11,27,18,24,40,495,-245.9878921508789,5811.0,8075.0,4294964925.0
2018,11,27,18,24,40,499,-245.9564208984375,,,
2018,11,27,18,24,40,503,-245.8791732788086,,,
2018,11,27,18,24,40,506,-245.99647521972656,,,
2018,11,27,18,24,40,510,-246.10519409179688,,,
2018,11,27,18,24,40,514,-245.9707260131836,5791.0,8075.0,4294964944.0
2018,11,27,18,24,40,518,-246.14810943603516,,,
2018,11,27,18,24,40,522,-246.1681365966797,,,
2018,11,27,18,24,40,526,-246.1252212524414,,,
2018,11,27,18,24,40,530,-246.21105194091797,,,
2018,11,27,18,24,40,534,-246.11377716064453,5791.0,8016.0,4294965082.0
2018,11,27,18,24,40,538,-246.00791931152344,,,
2018,11,27,18,24,40,542,-245.99933624267578,,,
2018,11,27,18,24,40,545,-245.9735870361328,,,
2018,11,27,18,24,40,549,-245.97644805908203,,,
2018,11,27,18,24,40,553,-246.08802795410156,5850.0,7957.0,4294964925.0
2018,11,27,18,24,40,557,-245.97644805908203,,,
2018,11,27,18,24,40,561,-245.9850311279297,,,
2018,11,27,18,24,40,565,-245.99361419677734,,,
2018,11,27,18,24,40,569,-246.08802795410156,,,
2018,11,27,18,24,40,573,-246.08802795410156,5889.0,8016.0,4294965042.0
2018,11,27,18,24,40,577,-246.09375,,,
2018,11,27,18,24,40,581,-246.02794647216797,,,
2018,11,27,18,24,40,585,-246.12808227539062,,,
2018,11,27,18,24,40,588,-246.22821807861328,,,
2018,11,27,18,24,40,592,-246.2139129638672,5831.0,8016.0,4294965003.0
2018,11,27,18,24,40,596,-246.1395263671875,,,
2018,11,27,18,24,40,600,-246.08802795410156,,,
2018,11,27,18,24,40,604,-246.08516693115234,,,
2018,11,27,18,24,40,608,-246.15955352783203,,,
2018,11,27,18,24,40,612,-246.2167739868164,5850.0,7996.0,4294965003.0
2018,11,27,18,24,40,616,-246.2453842163086,,,
2018,11,27,18,24,40,620,-246.06800079345703,,,
2018,11,27,18,24,40,624,-246.1566925048828,,,
2018,11,27,18,24,40,628,-246.19674682617188,,,
2018,11,27,18,24,40,631,-246.27399444580078,5811.0,7996.0,4294964984.0
2018,11,27,18,24,40,635,-246.15097045898438,,,
2018,11,27,18,24,40,639,-246.1109161376953,,,
2018,11,27,18,24,40,643,-246.08230590820312,,,
2018,11,27,18,24,40,647,-246.46568298339844,,,
2018,11,27,18,24,40,651,-246.47140502929688,5811.0,8094.0,4294965003.0
2018,11,27,18,24,40,655,-246.34838104248047,,,
2018,11,27,18,24,40,659,-246.2911605834961,,,
2018,11,27,18,24,40,663,-246.19102478027344,,,
2018,11,27,18,24,40,667,-246.17958068847656,,,
2018,11,27,18,24,40,670,-246.2625503540039,5889.0,8114.0,4294965003.0
2018,11,27,18,24,40,674,-246.1538314819336,,,
2018,11,27,18,24,40,678,-246.0308074951172,,,
