Year,Month,Day,Hour,Min,Sec,Msec,P02S ECG,P02S G1,P02S G2,P02S G3
2018,11,27,18,5,46,334,266.54720306396484,6174.0,8016.0,4294967208.0
2018,11,27,18,5,46,338,266.5128707885742,,,
2018,11,27,18,5,46,342,266.510009765625,,,
2018,11,27,18,5,46,346,266.8018341064453,,,
2018,11,27,18,5,46,350,266.9105529785156,,,
2018,11,27,18,5,46,354,266.8619155883789,6311.0,8094.0,4294967247.0
2018,11,27,18,5,46,358,266.9563293457031,,,
2018,11,27,18,5,46,362,267.11082458496094,,,
2018,11,27,18,5,46,366,267.3168182373047,,,
2018,11,27,18,5,46,370,267.0621871948242,,,
2018,11,27,18,5,46,374,267.15946197509766,6252.0,8016.0,4294967149.0
2018,11,27,18,5,46,377,267.2767639160156,,,
2018,11,27,18,5,46,381,267.32540130615234,,,
2018,11,27,18,5,46,385,267.4741744995117,,,
2018,11,27,18,5,46,389,267.6515579223633,,,
2018,11,27,18,5,46,393,267.5800323486328,6330.0,7879.0,0.0
2018,11,27,18,5,46,397,267.52281188964844,,,
2018,11,27,18,5,46,401,267.45128631591797,,,
2018,11,27,18,5,46,405,267.3797607421875,,,
2018,11,27,18,5,46,409,267.608642578125,,,
2018,11,27,18,5,46,413,267.37403869628906,6154.0,7957.0,4294967208.0
2018,11,27,18,5,46,416,267.1995162963867,,,
2018,11,27,18,5,46,420,266.87049865722656,,,
2018,11,27,18,5,46,424,266.83616638183594,,,
2018,11,27,18,5,46,428,266.7245864868164,,,
2018,11,27,18,5,46,432,266.5557861328125,6232.0,7977.0,4294967208.0
2018,11,27,18,5,46,436,265.9463882446289,,,
2018,11,27,18,5,46,440,265.960693359375,,,
2018,11,27,18,5,46,444,265.8061981201172,,,
2018,11,27,18,5,46,448,265.6230926513672,,,
2018,11,27,18,5,46,452,265.4542922973633,6252.0,8036.0,4294967247.0
2018,11,27,18,5,46,456,265.1968002319336,,,
2018,11,27,18,5,46,459,265.11669158935547,,,
2018,11,27,18,5,46,463,264.9679183959961,,,
2018,11,27,18,5,46,467,265.0022506713867,,,
2018,11,27,18,5,46,471,264.9507522583008,6272.0,7977.0,127.0
2018,11,27,18,5,46,475,264.79339599609375,,,
2018,11,27,18,5,46,479,264.6932601928711,,,
2018,11,27,18,5,46,483,264.6331787109375,,,
2018,11,27,18,5,46,487,264.57881927490234,,,
2018,11,27,18,5,46,491,264.5244598388672,6232.0,8016.0,4294967247.0
2018,11,27,18,5,46,495,264.30702209472656,,,
2018,11,27,18,5,46,499,264.1725540161133,,,
2018,11,27,18,5,46,502,264.5759582519531,,,
2018,11,27,18,5,46,506,264.5416259765625,,,
2018,11,27,18,5,46,510,264.48726654052734,6252.0,7996.0,0.0
2018,11,27,18,5,46,514,264.22119140625,,,
2018,11,27,18,5,46,518,264.0094757080078,,,
2018,11,27,18,5,46,522,263.9951705932617,,,
2018,11,27,18,5,46,526,263.9808654785156,,,
2018,11,27,18,5,46,530,263.97228240966797,6213.0,7957.0,4294967149.0
2018,11,27,18,5,46,534,263.90933990478516,,,
2018,11,27,18,5,46,538,263.92364501953125,,,
2018,11,27,18,5,46,541,263.9780044555664,,,
2018,11,27,18,5,46,545,264.129638671875,,,
2018,11,27,18,5,46,549,264.28985595703125,6272.0,8075.0,4294967169.0
2018,11,27,18,5,46,553,264.0266418457031,,,
2018,11,27,18,5,46,557,264.1468048095703,,,
2018,11,27,18,5,46,561,263.9808654785156,,,
2018,11,27,18,5,46,565,263.7662887573242,,,
2018,11,27,18,5,46,569,264.2984390258789,6252.0,7938.0,4294967189.0
2018,11,27,18,5,46,573,264.19544219970703,,,
2018,11,27,18,5,46,577,264.1868591308594,,,
2018,11,27,18,5,46,581,264.0981674194336,,,
2018,11,27,18,5,46,584,264.1153335571289,,,
2018,11,27,18,5,46,588,264.05811309814453,6272.0,7918.0,4294967208.0
2018,11,27,18,5,46,592,263.8406753540039,,,
2018,11,27,18,5,46,596,263.9350891113281,,,
2018,11,27,18,5,46,600,263.78345489501953,,,
2018,11,27,18,5,46,604,263.88072967529297,,,
2018,11,27,18,5,46,608,263.7319564819336,6232.0,7840.0,4294967189.0
2018,11,27,18,5,46,612,263.6089324951172,,,
2018,11,27,18,5,46,616,263.4458541870117,,,
2018,11,27,18,5,46,620,263.52882385253906,,,
2018,11,27,18,5,46,624,263.41724395751953,,,
2018,11,27,18,5,46,627,263.5946273803711,6213.0,7918.0,4294967247.0
2018,11,27,18,5,46,631,263.5488510131836,,,
2018,11,27,18,5,46,635,263.40579986572266,,,
2018,11,27,18,5,46,639,263.27991485595703,,,
2018,11,27,18,5,46,643,263.21983337402344,,,
2018,11,27,18,5,46,647,263.12828063964844,6213.0,7977.0,4294967189.0
2018,11,27,18,5,46,651,263.11397552490234,,,
2018,11,27,18,5,46,655,262.97664642333984,,,
2018,11,27,18,5,46,659,262.77923583984375,,,
2018,11,27,18,5,46,663,262.7735137939453,,,
2018,11,27,18,5,46,666,262.8307342529297,6232.0,8016.0,4294967228.0
2018,11,27,18,5,46,670,262.75634765625,,,
2018,11,27,18,5,46,674,262.7220153808594,,,
2018,11,27,18,5,46,678,262.7592086791992,,,
2018,11,27,18,5,46,682,262.6676559448242,,,
2018,11,27,18,5,46,686,262.77637481689453,6232.0,7977.0,4294967208.0
2018,11,27,18,5,46,690,262.8021240234375,,,
2018,11,27,18,5,46,694,262.6991271972656,,,
2018,11,27,18,5,46,698,262.4931335449219,,,
2018,11,27,18,5,46,702,262.4502182006836,,,
2018,11,27,18,5,46,706,262.41302490234375,6252.0,7977.0,4294967208.0
2018,11,27,18,5,46,709,262.39585876464844,,,
2018,11,27,18,5,46,713,262.35008239746094,,,
2018,11,27,18,5,46,717,262.2814178466797,,,
2018,11,27,18,5,46,721,262.16697692871094,,,
2018,11,27,18,5,46,725,262.12406158447266,6252.0,7957.0,4294967228.0
2018,11,27,18,5,46,729,262.06398010253906,,,
2018,11,27,18,5,46,733,261.98673248291016,,,
2018,11,27,18,5,46,737,262.00103759765625,,,
2018,11,27,18,5,46,741,261.9352340698242,,,
2018,11,27,18,5,46,745,261.9752883911133,6213.0,7996.0,4294967247.0
2018,11,27,18,5,46,749,261.8436813354492,,,
2018,11,27,18,5,46,752,261.5947723388672,,,
2018,11,27,18,5,46,756,261.69776916503906,,,
2018,11,27,18,5,46,760,261.58905029296875,,,
2018,11,27,18,5,46,764,261.52610778808594,6193.0,7996.0,4294967267.0
2018,11,27,18,5,46,768,261.70921325683594,,,
2018,11,27,18,5,46,772,261.61766052246094,,,
2018,11,27,18,5,46,776,261.58905029296875,,,
2018,11,27,18,5,46,780,261.52896881103516,,,
2018,11,27,18,5,46,784,261.5547180175781,6232.0,8036.0,4294967247.0
2018,11,27,18,5,46,788,261.54613494873047,,,
2018,11,27,18,5,46,791,261.566162109375,,,
2018,11,27,18,5,46,795,261.474609375,,,
2018,11,27,18,5,46,799,261.3344192504883,,,
2018,11,27,18,5,46,803,261.5089416503906,6252.0,7977.0,4294967247.0
2018,11,27,18,5,46,807,261.50035858154297,,,
2018,11,27,18,5,46,811,261.4431381225586,,,
2018,11,27,18,5,46,815,261.37447357177734,,,
2018,11,27,18,5,46,819,261.63196563720703,,,
2018,11,27,18,5,46,823,261.81793212890625,6232.0,7938.0,4294967247.0
2018,11,27,18,5,46,827,261.8551254272461,,,
2018,11,27,18,5,46,831,261.8694305419922,,,
2018,11,27,18,5,46,834,261.58905029296875,,,
2018,11,27,18,5,46,838,261.39163970947266,,,
2018,11,27,18,5,46,842,261.5175247192383,6272.0,7996.0,4294967228.0
2018,11,27,18,5,46,846,261.52610778808594,,,
2018,11,27,18,5,46,850,261.5203857421875,,,
2018,11,27,18,5,46,854,261.25144958496094,,,
2018,11,27,18,5,46,858,261.36016845703125,,,
2018,11,27,18,5,46,862,261.35730743408203,6232.0,7918.0,4294967267.0
2018,11,27,18,5,46,866,261.23714447021484,,,
2018,11,27,18,5,46,870,261.3945007324219,,,
2018,11,27,18,5,46,874,261.3401412963867,,,
2018,11,27,18,5,46,877,261.2886428833008,,,
2018,11,27,18,5,46,881,260.9710693359375,6193.0,8036.0,4294967208.0
2018,11,27,18,5,46,885,261.3201141357422,,,
2018,11,27,18,5,46,889,261.3487243652344,,,
2018,11,27,18,5,46,893,261.43455505371094,,,
2018,11,27,18,5,46,897,261.2743377685547,,,
2018,11,27,18,5,46,901,261.6548538208008,6174.0,7996.0,4294967149.0
2018,11,27,18,5,46,905,262.09259033203125,,,
2018,11,27,18,5,46,909,262.2642517089844,,,
2018,11,27,18,5,46,913,261.80076599121094,,,
2018,11,27,18,5,46,916,261.70921325683594,,,
2018,11,27,18,5,46,920,261.54613494873047,6232.0,8016.0,4294967228.0
2018,11,27,18,5,46,924,261.58618927001953,,,
2018,11,27,18,5,46,928,261.4316940307617,,,
2018,11,27,18,5,46,932,261.2485885620117,,,
2018,11,27,18,5,46,936,261.199951171875,,,
2018,11,27,18,5,46,940,261.1112594604492,6174.0,7879.0,4294967267.0
2018,11,27,18,5,46,944,260.833740234375,,,
2018,11,27,18,5,46,948,260.5104446411133,,,
2018,11,27,18,5,46,952,260.59627532958984,,,
2018,11,27,18,5,46,956,260.467529296875,,,
2018,11,27,18,5,46,959,260.44464111328125,6232.0,7977.0,4294967247.0
2018,11,27,18,5,46,963,260.5104446411133,,,
2018,11,27,18,5,46,967,260.45894622802734,,,
2018,11,27,18,5,46,971,260.31017303466797,,,
2018,11,27,18,5,46,975,260.21289825439453,,,
2018,11,27,18,5,46,979,260.0669860839844,6193.0,8075.0,4294967228.0
2018,11,27,18,5,46,983,260.2672576904297,,,
2018,11,27,18,5,46,987,260.2100372314453,,,
2018,11,27,18,5,46,991,260.3874206542969,,,
2018,11,27,18,5,46,995,260.1757049560547,,,
2018,11,27,18,5,46,999,260.1499557495117,6232.0,8075.0,4294967267.0
2018,11,27,18,5,47,2,260.0584030151367,,,
2018,11,27,18,5,47,6,260.1327896118164,,,
2018,11,27,18,5,47,10,260.0126266479492,,,
2018,11,27,18,5,47,14,259.85240936279297,,,
2018,11,27,18,5,47,18,259.6092224121094,6252.0,7957.0,4294967247.0
2018,11,27,18,5,47,22,260.2100372314453,,,
2018,11,27,18,5,47,26,261.90662384033203,,,
2018,11,27,18,5,47,30,263.23413848876953,,,
2018,11,27,18,5,47,34,265.20538330078125,,,
2018,11,27,18,5,47,38,269.84596252441406,6252.0,8055.0,4294967189.0
2018,11,27,18,5,47,41,276.19171142578125,,,
2018,11,27,18,5,47,45,281.77642822265625,,,
2018,11,27,18,5,47,49,280.03978729248047,,,
2018,11,27,18,5,47,53,273.30780029296875,,,
2018,11,27,18,5,47,57,270.25794982910156,6291.0,7918.0,4294967208.0
2018,11,27,18,5,47,61,266.7961120605469,,,
2018,11,27,18,5,47,65,258.26168060302734,,,
2018,11,27,18,5,47,69,258.5792541503906,,,
2018,11,27,18,5,47,73,261.31725311279297,,,
2018,11,27,18,5,47,77,262.2184753417969,6174.0,7957.0,4294967287.0
2018,11,27,18,5,47,81,262.3615264892578,,,
2018,11,27,18,5,47,84,261.7950439453125,,,
2018,11,27,18,5,47,88,261.34586334228516,,,
2018,11,27,18,5,47,92,261.17992401123047,,,
2018,11,27,18,5,47,96,261.1513137817383,6193.0,8094.0,4294966953.0
2018,11,27,18,5,47,100,260.9996795654297,,,
2018,11,27,18,5,47,104,260.9853744506836,,,
2018,11,27,18,5,47,108,261.01112365722656,,,
2018,11,27,18,5,47,112,261.02256774902344,,,
2018,11,27,18,5,47,116,261.02256774902344,6193.0,8075.0,4294967267.0
2018,11,27,18,5,47,120,260.9395980834961,,,
2018,11,27,18,5,47,124,260.67066192626953,,,
2018,11,27,18,5,47,127,260.94818115234375,,,
2018,11,27,18,5,47,131,261.04259490966797,,,
2018,11,27,18,5,47,135,260.90240478515625,6213.0,7977.0,9.0
2018,11,27,18,5,47,139,260.6992721557617,,,
2018,11,27,18,5,47,143,260.32447814941406,,,
2018,11,27,18,5,47,147,260.6391906738281,,,
2018,11,27,18,5,47,151,260.8966827392578,,,
2018,11,27,18,5,47,155,261.0054016113281,6193.0,7957.0,4294967267.0
2018,11,27,18,5,47,159,261.01112365722656,,,
2018,11,27,18,5,47,163,261.2428665161133,,,
2018,11,27,18,5,47,166,261.3401412963867,,,
2018,11,27,18,5,47,170,261.40308380126953,,,
2018,11,27,18,5,47,174,261.52896881103516,6193.0,8036.0,4294967208.0
2018,11,27,18,5,47,178,261.4316940307617,,,
2018,11,27,18,5,47,182,261.4774703979492,,,
2018,11,27,18,5,47,186,261.81507110595703,,,
2018,11,27,18,5,47,190,261.9180679321289,,,
2018,11,27,18,5,47,194,262.0096206665039,6232.0,7996.0,4294967267.0
2018,11,27,18,5,47,198,262.1011734008789,,,
2018,11,27,18,5,47,202,262.15553283691406,,,
2018,11,27,18,5,47,206,262.23278045654297,,,
2018,11,27,18,5,47,209,262.36724853515625,,,
2018,11,27,18,5,47,213,262.41302490234375,6252.0,7938.0,4294967208.0
2018,11,27,18,5,47,217,262.57896423339844,,,
2018,11,27,18,5,47,221,262.51888275146484,,,
2018,11,27,18,5,47,225,262.7077102661133,,,
2018,11,27,18,5,47,229,262.7992630004883,,,
2018,11,27,18,5,47,233,262.78209686279297,6232.0,7996.0,4294967267.0
2018,11,27,18,5,47,237,262.68482208251953,,,
2018,11,27,18,5,47,241,262.57896423339844,,,
2018,11,27,18,5,47,245,262.51888275146484,,,
2018,11,27,18,5,47,249,262.664794921875,,,
2018,11,27,18,5,47,252,262.56465911865234,6174.0,7996.0,4294967208.0
2018,11,27,18,5,47,256,262.27283477783203,,,
2018,11,27,18,5,47,260,262.0811462402344,,,
2018,11,27,18,5,47,264,261.9609832763672,,,
2018,11,27,18,5,47,268,261.7607116699219,,,
2018,11,27,18,5,47,272,261.39163970947266,6154.0,7996.0,4294967169.0
2018,11,27,18,5,47,276,261.0912322998047,,,
2018,11,27,18,5,47,280,260.9224319458008,,,
2018,11,27,18,5,47,284,260.8022689819336,,,
2018,11,27,18,5,47,288,260.76507568359375,,,
2018,11,27,18,5,47,291,260.62488555908203,6252.0,7996.0,4294967228.0
2018,11,27,18,5,47,295,260.4103088378906,,,
2018,11,27,18,5,47,299,260.19859313964844,,,
2018,11,27,18,5,47,303,260.02979278564453,,,
2018,11,27,18,5,47,307,260.2100372314453,,,
2018,11,27,18,5,47,311,260.12134552001953,,,
2018,11,27,18,5,47,315,260.0727081298828,,,
2018,11,27,18,5,47,319,259.9210739135742,,,
2018,11,27,18,5,47,323,259.88101959228516,,,
2018,11,27,18,5,47,327,259.84668731689453,,,
2018,11,27,18,5,47,331,259.54627990722656,,,
2018,11,27,18,5,47,334,259.66930389404297,,,
2018,11,27,18,5,47,338,259.57489013671875,,,
2018,11,27,18,5,47,342,259.52911376953125,,,
2018,11,27,18,5,47,346,259.50050354003906,,,
2018,11,27,18,5,47,350,259.3059539794922,7957.0,4294967189.0,6311.0
2018,11,27,18,5,47,354,259.33170318603516,,,
2018,11,27,18,5,47,358,259.2029571533203,,,
2018,11,27,18,5,47,362,259.18006896972656,,,
2018,11,27,18,5,47,366,259.3116760253906,,,
2018,11,27,18,5,47,370,259.3574523925781,7918.0,4294967149.0,6154.0
2018,11,27,18,5,47,374,259.2744827270508,,,
2018,11,27,18,5,47,377,259.16290283203125,,,
2018,11,27,18,5,47,381,259.24015045166016,,,
2018,11,27,18,5,47,385,259.36317443847656,,,
2018,11,27,18,5,47,389,259.34886932373047,8055.0,4294967247.0,6213.0
2018,11,27,18,5,47,393,259.2287063598633,,,
2018,11,27,18,5,47,397,259.4003677368164,,,
2018,11,27,18,5,47,401,259.3832015991211,,,
2018,11,27,18,5,47,405,259.5348358154297,,,
2018,11,27,18,5,47,409,259.4633102416992,7996.0,4294967169.0,6213.0
2018,11,27,18,5,47,413,259.5376968383789,,,
2018,11,27,18,5,47,416,259.4432830810547,,,
2018,11,27,18,5,47,420,259.3545913696289,,,
2018,11,27,18,5,47,424,259.4175338745117,,,
2018,11,27,18,5,47,428,259.58919525146484,7996.0,4294967247.0,6272.0
2018,11,27,18,5,47,432,259.36031341552734,,,
2018,11,27,18,5,47,436,259.185791015625,,,
2018,11,27,18,5,47,440,259.25731658935547,,,
2018,11,27,18,5,47,444,259.19437408447266,,,
2018,11,27,18,5,47,448,259.2430114746094,7996.0,4294967247.0,6213.0
2018,11,27,18,5,47,452,259.13143157958984,,,
2018,11,27,18,5,47,456,258.9225769042969,,,
2018,11,27,18,5,47,459,258.8653564453125,,,
2018,11,27,18,5,47,463,259.1543197631836,,,
2018,11,27,18,5,47,467,258.91685485839844,7996.0,4294967189.0,6232.0
2018,11,27,18,5,47,471,258.79669189453125,,,
2018,11,27,18,5,47,475,258.6851119995117,,,
2018,11,27,18,5,47,479,258.5592269897461,,,
2018,11,27,18,5,47,483,258.6250305175781,,,
2018,11,27,18,5,47,487,258.56781005859375,8036.0,4294967110.0,6154.0
2018,11,27,18,5,47,491,258.53919982910156,,,
2018,11,27,18,5,47,495,258.27598571777344,,,
2018,11,27,18,5,47,499,258.2674026489258,,,
2018,11,27,18,5,47,502,258.26454162597656,,,
2018,11,27,18,5,47,506,258.2988739013672,8055.0,4294967189.0,6105.0
2018,11,27,18,5,47,510,258.19873809814453,,,
2018,11,27,18,5,47,514,257.74097442626953,,,
2018,11,27,18,5,47,518,258.00132751464844,,,
2018,11,27,18,5,47,522,257.9841613769531,,,
2018,11,27,18,5,47,526,257.8582763671875,7977.0,4294967208.0,6154.0
2018,11,27,18,5,47,530,257.5521469116211,,,
2018,11,27,18,5,47,534,257.45201110839844,,,
2018,11,27,18,5,47,538,257.537841796875,,,
2018,11,27,18,5,47,541,257.4291229248047,,,
2018,11,27,18,5,47,545,257.52925872802734,7957.0,4294967287.0,6291.0
2018,11,27,18,5,47,549,257.6007843017578,,,
2018,11,27,18,5,47,553,257.42626190185547,,,
2018,11,27,18,5,47,557,257.354736328125,,,
2018,11,27,18,5,47,561,257.3375701904297,,,
2018,11,27,18,5,47,565,257.28893280029297,7938.0,4294967208.0,6252.0
2018,11,27,18,5,47,569,257.27176666259766,,,
2018,11,27,18,5,47,573,257.1287155151367,,,
2018,11,27,18,5,47,577,257.1401596069336,,,
2018,11,27,18,5,47,581,257.1430206298828,,,
2018,11,27,18,5,47,584,257.13157653808594,7957.0,4294967169.0,6193.0
2018,11,27,18,5,47,588,256.84261322021484,,,
2018,11,27,18,5,47,592,256.99710845947266,,,
2018,11,27,18,5,47,596,256.8855285644531,,,
2018,11,27,18,5,47,600,256.89697265625,,,
2018,11,27,18,5,47,604,257.00855255126953,7918.0,4294967228.0,6174.0
2018,11,27,18,5,47,608,257.01141357421875,,,
2018,11,27,18,5,47,612,257.0772171020508,,,
2018,11,27,18,5,47,616,256.9742202758789,,,
2018,11,27,18,5,47,620,256.8798065185547,,,
2018,11,27,18,5,47,624,256.8826675415039,7977.0,4294967247.0,6232.0
2018,11,27,18,5,47,627,256.9856643676758,,,
2018,11,27,18,5,47,631,256.8368911743164,,,
2018,11,27,18,5,47,635,256.75392150878906,,,
2018,11,27,18,5,47,639,256.73389434814453,,,
2018,11,27,18,5,47,643,256.7310333251953,7938.0,0.0,6252.0
2018,11,27,18,5,47,647,256.78253173828125,,,
2018,11,27,18,5,47,651,256.6680908203125,,,
2018,11,27,18,5,47,655,256.5021514892578,,,
2018,11,27,18,5,47,659,256.43348693847656,,,
2018,11,27,18,5,47,663,256.4420700073242,8016.0,4294967228.0,6232.0
2018,11,27,18,5,47,666,256.5135955810547,,,
2018,11,27,18,5,47,670,256.5479278564453,,,
2018,11,27,18,5,47,674,256.3648223876953,,,
2018,11,27,18,5,47,678,256.3333511352539,,,
2018,11,27,18,5,47,682,256.4249038696289,7898.0,4294967208.0,6174.0
2018,11,27,18,5,47,686,256.44493103027344,,,
2018,11,27,18,5,47,690,256.4420700073242,,,
2018,11,27,18,5,47,694,256.21891021728516,,,
2018,11,27,18,5,47,698,256.2875747680664,,,
2018,11,27,18,5,47,702,256.3018798828125,8016.0,4294967228.0,6213.0
2018,11,27,18,5,47,706,256.28185272216797,,,
2018,11,27,18,5,47,709,256.4105987548828,,,
2018,11,27,18,5,47,713,256.44779205322266,,,
2018,11,27,18,5,47,717,256.32476806640625,,,
2018,11,27,18,5,47,721,256.4821243286133,7996.0,4294967149.0,6213.0
2018,11,27,18,5,47,725,256.5650939941406,,,
2018,11,27,18,5,47,729,256.73961639404297,,,
2018,11,27,18,5,47,733,256.73389434814453,,,
2018,11,27,18,5,47,737,256.5879821777344,,,
2018,11,27,18,5,47,741,256.7138671875,8016.0,4294967208.0,6213.0
2018,11,27,18,5,47,745,257.1115493774414,,,
2018,11,27,18,5,47,749,257.43770599365234,,,
2018,11,27,18,5,47,752,257.080078125,,,
2018,11,27,18,5,47,756,256.96849822998047,,,
2018,11,27,18,5,47,760,256.87122344970703,7996.0,4294967208.0,6213.0
2018,11,27,18,5,47,764,256.8225860595703,,,
2018,11,27,18,5,47,768,256.6566467285156,,,
2018,11,27,18,5,47,772,256.41918182373047,,,
2018,11,27,18,5,47,776,256.34193420410156,,,
2018,11,27,18,5,47,780,256.3819885253906,7996.0,4294967189.0,6193.0
2018,11,27,18,5,47,784,256.0873031616211,,,
2018,11,27,18,5,47,788,255.84125518798828,,,
2018,11,27,18,5,47,791,255.80692291259766,,,
2018,11,27,18,5,47,795,255.78975677490234,,,
2018,11,27,18,5,47,799,255.71823120117188,7996.0,9.0,6213.0
2018,11,27,18,5,47,803,255.75828552246094,,,
2018,11,27,18,5,47,807,255.8298110961914,,,
2018,11,27,18,5,47,811,255.7382583618164,,,
2018,11,27,18,5,47,815,255.5866241455078,,,
2018,11,27,18,5,47,819,255.44071197509766,7957.0,4294967228.0,6115.0
2018,11,27,18,5,47,823,255.48648834228516,,,
2018,11,27,18,5,47,827,255.54370880126953,,,
2018,11,27,18,5,47,831,255.61809539794922,,,
2018,11,27,18,5,47,834,255.5065155029297,,,
2018,11,27,18,5,47,838,255.48934936523438,8016.0,4294967267.0,6213.0
2018,11,27,18,5,47,842,255.50365447998047,,,
2018,11,27,18,5,47,846,255.7697296142578,,,
2018,11,27,18,5,47,850,255.93280792236328,,,
2018,11,27,18,5,47,854,255.77545166015625,,,
2018,11,27,18,5,47,858,255.42068481445312,8016.0,4294967287.0,6213.0
2018,11,27,18,5,47,862,255.52940368652344,,,
2018,11,27,18,5,47,866,256.9713592529297,,,
2018,11,27,18,5,47,870,258.4705352783203,,,
2018,11,27,18,5,47,874,259.5348358154297,,,
2018,11,27,18,5,47,877,263.2627487182617,8016.0,4294967169.0,6193.0
2018,11,27,18,5,47,881,269.0706253051758,,,
2018,11,27,18,5,47,885,275.4678726196289,,,
2018,11,27,18,5,47,889,277.2102355957031,,,
2018,11,27,18,5,47,893,271.4681625366211,,,
2018,11,27,18,5,47,897,266.74747467041016,7996.0,9.0,6272.0
2018,11,27,18,5,47,901,264.88494873046875,,,
2018,11,27,18,5,47,905,256.43062591552734,,,
2018,11,27,18,5,47,909,253.2176971435547,,,
2018,11,27,18,5,47,913,255.4035186767578,,,
2018,11,27,18,5,47,916,257.10010528564453,7938.0,4294967130.0,6232.0
2018,11,27,18,5,47,920,257.7066421508789,,,
2018,11,27,18,5,47,924,257.4605941772461,,,
2018,11,27,18,5,47,928,256.76822662353516,,,
2018,11,27,18,5,47,932,256.4706802368164,,,
2018,11,27,18,5,47,936,256.4735412597656,7938.0,9.0,6213.0
2018,11,27,18,5,47,940,256.32190704345703,,,
2018,11,27,18,5,47,944,256.37054443359375,,,
2018,11,27,18,5,47,948,256.37054443359375,,,
2018,11,27,18,5,47,952,256.3762664794922,,,
2018,11,27,18,5,47,956,256.28185272216797,8114.0,4294967012.0,6232.0
2018,11,27,18,5,47,959,256.23035430908203,,,
2018,11,27,18,5,47,963,256.3333511352539,,,
2018,11,27,18,5,47,967,256.39915466308594,,,
2018,11,27,18,5,47,971,256.32762908935547,,,
2018,11,27,18,5,47,975,256.3505172729492,8055.0,4294967287.0,6193.0
2018,11,27,18,5,47,979,256.35337829589844,,,
2018,11,27,18,5,47,983,256.40201568603516,,,
2018,11,27,18,5,47,987,256.61373138427734,,,
2018,11,27,18,5,47,991,256.6995620727539,,,
2018,11,27,18,5,47,995,256.4821243286133,7918.0,9.0,6174.0
2018,11,27,18,5,47,999,256.78253173828125,,,
2018,11,27,18,5,48,2,256.9599151611328,,,
2018,11,27,18,5,48,6,257.0199966430664,,,
2018,11,27,18,5,48,10,257.0972442626953,,,
2018,11,27,18,5,48,14,257.0629119873047,7957.0,4294967267.0,6252.0
2018,11,27,18,5,48,18,257.0915222167969,,,
2018,11,27,18,5,48,22,257.2145462036133,,,
2018,11,27,18,5,48,26,257.34901428222656,,,
2018,11,27,18,5,48,30,257.51209259033203,,,
2018,11,27,18,5,48,34,257.57789611816406,8055.0,4294967149.0,6330.0
2018,11,27,18,5,48,38,257.87830352783203,,,
2018,11,27,18,5,48,41,258.2244873046875,,,
2018,11,27,18,5,48,45,258.3503723144531,,,
2018,11,27,18,5,48,49,258.3045959472656,,,
2018,11,27,18,5,48,53,258.2988739013672,7957.0,4294967110.0,6213.0
2018,11,27,18,5,48,57,258.32176208496094,,,
2018,11,27,18,5,48,61,258.4390640258789,,,
2018,11,27,18,5,48,65,258.5763931274414,,,
2018,11,27,18,5,48,69,258.66222381591797,,,
2018,11,27,18,5,48,73,258.63075256347656,7957.0,4294967169.0,6232.0
2018,11,27,18,5,48,77,258.4848403930664,,,
2018,11,27,18,5,48,81,258.453369140625,,,
2018,11,27,18,5,48,84,258.35323333740234,,,
2018,11,27,18,5,48,88,258.4648132324219,,,
2018,11,27,18,5,48,92,258.34178924560547,7918.0,4294967228.0,6252.0
2018,11,27,18,5,48,96,258.1043243408203,,,
2018,11,27,18,5,48,100,257.99560546875,,,
2018,11,27,18,5,48,104,257.5263977050781,,,
2018,11,27,18,5,48,108,257.55786895751953,,,
2018,11,27,18,5,48,112,257.3890686035156,7977.0,4294967267.0,6232.0
2018,11,27,18,5,48,116,257.1086883544922,,,
2018,11,27,18,5,48,120,256.91699981689453,,,
2018,11,27,18,5,48,124,256.6537857055664,,,
2018,11,27,18,5,48,127,256.6194534301758,,,
2018,11,27,18,5,48,131,256.38771057128906,8016.0,4294967189.0,6174.0
2018,11,27,18,5,48,135,256.1988830566406,,,
2018,11,27,18,5,48,139,256.05010986328125,,,
2018,11,27,18,5,48,143,255.8755874633789,,,
2018,11,27,18,5,48,147,255.90133666992188,,,
2018,11,27,18,5,48,151,255.79833984375,8036.0,4294967189.0,6213.0
2018,11,27,18,5,48,155,255.6324005126953,,,
2018,11,27,18,5,48,159,255.51509857177734,,,
2018,11,27,18,5,48,163,255.523681640625,,,
2018,11,27,18,5,48,166,255.64098358154297,,,
2018,11,27,18,5,48,170,255.5379867553711,8036.0,4294967169.0,6232.0
2018,11,27,18,5,48,174,255.35202026367188,,,
2018,11,27,18,5,48,178,255.10025024414062,,,
2018,11,27,18,5,48,182,255.0373077392578,,,
2018,11,27,18,5,48,186,254.91714477539062,,,
2018,11,27,18,5,48,190,254.98294830322266,8016.0,4294967247.0,6252.0
2018,11,27,18,5,48,194,254.7769546508789,,,
2018,11,27,18,5,48,198,254.57382202148438,,,
2018,11,27,18,5,48,202,254.51087951660156,,,
2018,11,27,18,5,48,206,254.56809997558594,,,
2018,11,27,18,5,48,209,254.6224594116211,7879.0,4294967208.0,6154.0
2018,11,27,18,5,48,213,254.60529327392578,,,
2018,11,27,18,5,48,217,254.61959838867188,,,
2018,11,27,18,5,48,221,254.7168731689453,,,
2018,11,27,18,5,48,225,254.81128692626953,,,
2018,11,27,18,5,48,229,255.01728057861328,7977.0,4294967189.0,6232.0
2018,11,27,18,5,48,233,254.86278533935547,,,
2018,11,27,18,5,48,237,254.71115112304688,,,
2018,11,27,18,5,48,241,254.791259765625,,,
2018,11,27,18,5,48,245,254.85992431640625,,,
2018,11,27,18,5,48,249,254.83989715576172,7996.0,4294967228.0,6232.0
2018,11,27,18,5,48,252,254.83417510986328,,,
2018,11,27,18,5,48,256,254.8513412475586,,,
2018,11,27,18,5,48,260,254.69970703125,,,
2018,11,27,18,5,48,264,254.61673736572266,,,
2018,11,27,18,5,48,268,254.84848022460938,7957.0,4294967267.0,6232.0
2018,11,27,18,5,48,272,254.81700897216797,,,
2018,11,27,18,5,48,276,254.6253204345703,,,
2018,11,27,18,5,48,280,254.56523895263672,,,
2018,11,27,18,5,48,284,254.55951690673828,,,
2018,11,27,18,5,48,288,254.6539306640625,7938.0,4294967189.0,6252.0
2018,11,27,18,5,48,291,254.39071655273438,,,
2018,11,27,18,5,48,295,254.31346893310547,,,
2018,11,27,18,5,48,299,254.2562484741211,,,
2018,11,27,18,5,48,303,254.2104721069336,,,
2018,11,27,18,5,48,307,254.34207916259766,7938.0,4294967228.0,6213.0
2018,11,27,18,5,48,311,254.15611267089844,,,
2018,11,27,18,5,48,315,254.0731430053711,,,
2018,11,27,18,5,48,319,253.99017333984375,,,
2018,11,27,18,5,48,323,253.8127899169922,,,
2018,11,27,18,5,48,327,253.84998321533203,,,
2018,11,27,18,5,48,331,253.92723083496094,,,
2018,11,27,18,5,48,334,253.7555694580078,,,
2018,11,27,18,5,48,338,253.76415252685547,,,
2018,11,27,18,5,48,342,253.63826751708984,,,
2018,11,27,18,5,48,346,253.70407104492188,8016.0,4294967169.0,6174.0
2018,11,27,18,5,48,350,253.62682342529297,,,
2018,11,27,18,5,48,354,253.48949432373047,,,
2018,11,27,18,5,48,358,253.4351348876953,,,
2018,11,27,18,5,48,362,253.47518920898438,,,
2018,11,27,18,5,48,366,253.46946716308594,8016.0,4294967287.0,6174.0
2018,11,27,18,5,48,370,253.3893585205078,,,
2018,11,27,18,5,48,374,253.3578872680664,,,
2018,11,27,18,5,48,377,253.23772430419922,,,
2018,11,27,18,5,48,381,253.23486328125,,,
2018,11,27,18,5,48,385,253.1719207763672,7957.0,0.0,6232.0
2018,11,27,18,5,48,389,253.18050384521484,,,
2018,11,27,18,5,48,393,253.06320190429688,,,
2018,11,27,18,5,48,397,253.04889678955078,,,
2018,11,27,18,5,48,401,252.91728973388672,,,
2018,11,27,18,5,48,405,253.01170349121094,7996.0,4294967208.0,6193.0
2018,11,27,18,5,48,409,252.93445587158203,,,
2018,11,27,18,5,48,413,252.8371810913086,,,
2018,11,27,18,5,48,416,252.73704528808594,,,
2018,11,27,18,5,48,420,252.6712417602539,,,
2018,11,27,18,5,48,424,252.960205078125,7957.0,4294967228.0,6213.0
2018,11,27,18,5,48,428,252.83145904541016,,,
2018,11,27,18,5,48,432,252.63690948486328,,,
2018,11,27,18,5,48,436,252.49958038330078,,,
2018,11,27,18,5,48,440,252.50244140625,,,
2018,11,27,18,5,48,444,252.62832641601562,7977.0,4294967189.0,6252.0
2018,11,27,18,5,48,448,252.6998519897461,,,
2018,11,27,18,5,48,452,252.63404846191406,,,
2018,11,27,18,5,48,456,252.593994140625,,,
2018,11,27,18,5,48,459,252.49671936035156,,,
2018,11,27,18,5,48,463,252.53963470458984,7996.0,4294967169.0,6213.0
2018,11,27,18,5,48,467,252.5653839111328,,,
2018,11,27,18,5,48,471,252.5339126586914,,,
2018,11,27,18,5,48,475,252.46524810791016,,,
2018,11,27,18,5,48,479,252.34222412109375,,,
2018,11,27,18,5,48,483,252.4566650390625,8094.0,4294967287.0,6232.0
2018,11,27,18,5,48,487,252.77137756347656,,,
2018,11,27,18,5,48,491,252.61688232421875,,,
2018,11,27,18,5,48,495,252.35652923583984,,,
2018,11,27,18,5,48,499,252.3937225341797,,,
2018,11,27,18,5,48,502,252.3336410522461,7957.0,4294967169.0,6213.0
2018,11,27,18,5,48,506,252.38800048828125,,,
2018,11,27,18,5,48,510,252.3822784423828,,,
2018,11,27,18,5,48,514,252.24781036376953,,,
2018,11,27,18,5,48,518,252.12478637695312,,,
2018,11,27,18,5,48,522,252.19345092773438,7957.0,4294967169.0,6272.0
2018,11,27,18,5,48,526,252.14481353759766,,,
2018,11,27,18,5,48,530,252.06470489501953,,,
2018,11,27,18,5,48,534,251.91307067871094,,,
2018,11,27,18,5,48,538,251.8758773803711,,,
2018,11,27,18,5,48,541,251.97601318359375,7918.0,4294967247.0,6213.0
2018,11,27,18,5,48,545,252.0160675048828,,,
2018,11,27,18,5,48,549,251.61266326904297,,,
2018,11,27,18,5,48,553,251.93023681640625,,,
2018,11,27,18,5,48,557,251.96170806884766,,,
2018,11,27,18,5,48,561,251.90162658691406,8036.0,4294967208.0,6213.0
2018,11,27,18,5,48,565,252.11620330810547,,,
2018,11,27,18,5,48,569,252.02465057373047,,,
2018,11,27,18,5,48,573,252.04753875732422,,,
2018,11,27,18,5,48,577,251.96456909179688,,,
2018,11,27,18,5,48,581,251.95598602294922,7996.0,4294967247.0,6213.0
2018,11,27,18,5,48,584,252.3794174194336,,,
2018,11,27,18,5,48,588,252.67982482910156,,,
2018,11,27,18,5,48,592,252.66551971435547,,,
2018,11,27,18,5,48,596,252.49671936035156,,,
2018,11,27,18,5,48,600,252.41947174072266,8036.0,4294967267.0,6232.0
2018,11,27,18,5,48,604,252.2592544555664,,,
2018,11,27,18,5,48,608,252.13050842285156,,,
2018,11,27,18,5,48,612,251.58405303955078,,,
2018,11,27,18,5,48,616,251.312255859375,,,
2018,11,27,18,5,48,620,251.39522552490234,7977.0,4294967189.0,6213.0
2018,11,27,18,5,48,624,251.3408660888672,,,
2018,11,27,18,5,48,627,251.08909606933594,,,
2018,11,27,18,5,48,631,250.93460083007812,,,
2018,11,27,18,5,48,635,250.99468231201172,,,
2018,11,27,18,5,48,639,250.9145736694336,7938.0,0.0,6213.0
2018,11,27,18,5,48,643,250.98037719726562,,,
2018,11,27,18,5,48,647,250.95462799072266,,,
2018,11,27,18,5,48,651,250.91171264648438,,,
2018,11,27,18,5,48,655,250.77152252197266,,,
2018,11,27,18,5,48,659,250.72860717773438,7977.0,4294967149.0,6193.0
2018,11,27,18,5,48,663,250.75721740722656,,,
2018,11,27,18,5,48,666,250.86307525634766,,,
2018,11,27,18,5,48,670,250.8831024169922,,,
2018,11,27,18,5,48,674,250.75149536132812,,,
2018,11,27,18,5,48,678,250.7944107055664,8094.0,4294967228.0,6213.0
2018,11,27,18,5,48,682,251.01184844970703,,,
2018,11,27,18,5,48,686,250.87738037109375,,,
2018,11,27,18,5,48,690,250.80013275146484,,,
2018,11,27,18,5,48,694,250.69427490234375,,,
2018,11,27,18,5,48,698,250.4425048828125,7996.0,4294967149.0,6213.0
2018,11,27,18,5,48,702,250.5626678466797,,,
2018,11,27,18,5,48,706,251.33514404296875,,,
2018,11,27,18,5,48,709,252.82859802246094,,,
2018,11,27,18,5,48,713,254.00733947753906,,,
2018,11,27,18,5,48,717,256.29615783691406,7957.0,4294967228.0,6232.0
2018,11,27,18,5,48,721,261.22570037841797,,,
2018,11,27,18,5,48,725,267.9290771484375,,,
2018,11,27,18,5,48,729,272.7842330932617,,,
2018,11,27,18,5,48,733,270.01476287841797,,,
2018,11,27,18,5,48,737,263.40293884277344,7957.0,29.0,6291.0
2018,11,27,18,5,48,741,260.6363296508789,,,
2018,11,27,18,5,48,745,255.7811737060547,,,
2018,11,27,18,5,48,749,248.21949005126953,,,
2018,11,27,18,5,48,752,249.10640716552734,,,
2018,11,27,18,5,48,756,251.7986297607422,7918.0,4294967149.0,6213.0
2018,11,27,18,5,48,760,252.59113311767578,,,
2018,11,27,18,5,48,764,252.83432006835938,,,
2018,11,27,18,5,48,768,252.1991729736328,,,
2018,11,27,18,5,48,772,251.7070770263672,,,
2018,11,27,18,5,48,776,251.4638900756836,7938.0,88.0,6193.0
2018,11,27,18,5,48,780,251.5239715576172,,,
2018,11,27,18,5,48,784,251.5411376953125,,,
2018,11,27,18,5,48,788,251.42383575439453,,,
2018,11,27,18,5,48,791,251.53541564941406,,,
2018,11,27,18,5,48,795,251.37805938720703,8134.0,4294967051.0,6252.0
2018,11,27,18,5,48,799,251.45816802978516,,,
2018,11,27,18,5,48,803,251.50108337402344,,,
2018,11,27,18,5,48,807,251.4324188232422,,,
2018,11,27,18,5,48,811,251.62696838378906,,,
2018,11,27,18,5,48,815,251.4209747314453,8036.0,29.0,6272.0
2018,11,27,18,5,48,819,251.4352798461914,,,
2018,11,27,18,5,48,823,251.5583038330078,,,
2018,11,27,18,5,48,827,251.67274475097656,,,
2018,11,27,18,5,48,831,251.79290771484375,,,
2018,11,27,18,5,48,834,251.76715850830078,7938.0,4294967287.0,6174.0
2018,11,27,18,5,48,838,251.8758773803711,,,
2018,11,27,18,5,48,842,251.87015533447266,,,
2018,11,27,18,5,48,846,252.0732879638672,,,
2018,11,27,18,5,48,850,252.1190643310547,,,
2018,11,27,18,5,48,854,252.18772888183594,8036.0,4294967228.0,6232.0
2018,11,27,18,5,48,858,252.23636627197266,,,
2018,11,27,18,5,48,862,252.3050308227539,,,
2018,11,27,18,5,48,866,252.5310516357422,,,
2018,11,27,18,5,48,870,252.59971618652344,,,
2018,11,27,18,5,48,874,252.4423599243164,8055.0,4294967189.0,6311.0
2018,11,27,18,5,48,877,252.57396697998047,,,
2018,11,27,18,5,48,881,252.7627944946289,,,
2018,11,27,18,5,48,885,252.8228759765625,,,
2018,11,27,18,5,48,889,252.9773712158203,,,
2018,11,27,18,5,48,893,252.93731689453125,7957.0,4294967189.0,6252.0
2018,11,27,18,5,48,897,253.1604766845703,,,
2018,11,27,18,5,48,901,253.3550262451172,,,
2018,11,27,18,5,48,905,253.50379943847656,,,
2018,11,27,18,5,48,909,253.63540649414062,,,
2018,11,27,18,5,48,913,253.46946716308594,7879.0,4294967228.0,6213.0
2018,11,27,18,5,48,916,253.46088409423828,,,
2018,11,27,18,5,48,920,253.40652465820312,,,
2018,11,27,18,5,48,924,253.42655181884766,,,
2018,11,27,18,5,48,928,253.5409927368164,,,
2018,11,27,18,5,48,932,253.46946716308594,7938.0,4294967169.0,6213.0
2018,11,27,18,5,48,936,253.44085693359375,,,
2018,11,27,18,5,48,940,253.24630737304688,,,
2018,11,27,18,5,48,944,253.16905975341797,,,
2018,11,27,18,5,48,948,252.90870666503906,,,
2018,11,27,18,5,48,952,252.68840789794922,8134.0,4294967189.0,6193.0
2018,11,27,18,5,48,956,252.52246856689453,,,
2018,11,27,18,5,48,959,252.31361389160156,,,
2018,11,27,18,5,48,963,252.17914581298828,,,
2018,11,27,18,5,48,967,252.08473205566406,,,
2018,11,27,18,5,48,971,251.77860260009766,7996.0,4294967228.0,6213.0
2018,11,27,18,5,48,975,251.58977508544922,,,
2018,11,27,18,5,48,979,251.3895034790039,,,
2018,11,27,18,5,48,983,251.34658813476562,,,
2018,11,27,18,5,48,987,251.3408660888672,,,
2018,11,27,18,5,48,991,251.18350982666016,8075.0,0.0,6252.0
2018,11,27,18,5,48,995,251.1148452758789,,,
2018,11,27,18,5,48,999,250.8716583251953,,,
2018,11,27,18,5,49,2,250.83446502685547,,,
2018,11,27,18,5,49,6,250.90885162353516,,,
2018,11,27,18,5,49,10,250.7171630859375,7898.0,4294967228.0,6232.0
2018,11,27,18,5,49,14,250.46253204345703,,,
2018,11,27,18,5,49,18,250.30231475830078,,,
2018,11,27,18,5,49,22,250.2880096435547,,,
2018,11,27,18,5,49,26,250.20503997802734,,,
2018,11,27,18,5,49,30,250.07343292236328,7957.0,4294967287.0,6213.0
2018,11,27,18,5,49,34,249.9246597290039,,,
2018,11,27,18,5,49,38,249.80735778808594,,,
2018,11,27,18,5,49,41,249.76730346679688,,,
2018,11,27,18,5,49,45,249.62425231933594,,,
2018,11,27,18,5,49,49,249.71866607666016,7996.0,4294967208.0,6174.0
2018,11,27,18,5,49,53,249.73011016845703,,,
2018,11,27,18,5,49,57,249.67288970947266,,,
2018,11,27,18,5,49,61,249.66716766357422,,,
2018,11,27,18,5,49,65,249.45545196533203,,,
2018,11,27,18,5,49,69,249.5870590209961,8075.0,4294967208.0,6193.0
2018,11,27,18,5,49,73,249.45545196533203,,,
2018,11,27,18,5,49,77,249.481201171875,,,
2018,11,27,18,5,49,81,249.49264526367188,,,
2018,11,27,18,5,49,84,249.51839447021484,,,
2018,11,27,18,5,49,88,249.62711334228516,7996.0,4294967247.0,6232.0
2018,11,27,18,5,49,92,249.58419799804688,,,
2018,11,27,18,5,49,96,249.47834014892578,,,
2018,11,27,18,5,49,100,249.50408935546875,,,
2018,11,27,18,5,49,104,249.34673309326172,,,
2018,11,27,18,5,49,108,249.59564208984375,7938.0,0.0,6232.0
2018,11,27,18,5,49,112,249.50695037841797,,,
2018,11,27,18,5,49,116,249.4668960571289,,,
2018,11,27,18,5,49,120,249.48978424072266,,,
2018,11,27,18,5,49,124,249.43828582763672,,,
2018,11,27,18,5,49,127,249.0692138671875,7977.0,4294967247.0,6272.0
2018,11,27,18,5,49,131,248.9948272705078,,,
2018,11,27,18,5,49,135,248.92902374267578,,,
2018,11,27,18,5,49,139,248.98624420166016,,,
2018,11,27,18,5,49,143,249.07207489013672,,,
2018,11,27,18,5,49,147,249.02629852294922,7957.0,4294967287.0,6232.0
2018,11,27,18,5,49,151,248.9919662475586,,,
2018,11,27,18,5,49,155,248.89469146728516,,,
2018,11,27,18,5,49,159,248.89755249023438,,,
2018,11,27,18,5,49,163,248.70872497558594,,,
2018,11,27,18,5,49,166,248.70872497558594,8094.0,4294967208.0,6174.0
2018,11,27,18,5,49,170,248.86322021484375,,,
2018,11,27,18,5,49,174,248.72589111328125,,,
2018,11,27,18,5,49,178,248.54278564453125,,,
2018,11,27,18,5,49,182,248.7316131591797,,,
2018,11,27,18,5,49,186,248.66008758544922,8075.0,4294967228.0,6213.0
2018,11,27,18,5,49,190,248.9032745361328,,,
2018,11,27,18,5,49,194,248.60572814941406,,,
2018,11,27,18,5,49,198,248.382568359375,,,
2018,11,27,18,5,49,202,248.31390380859375,,,
2018,11,27,18,5,49,206,248.43406677246094,7918.0,4294967228.0,6252.0
2018,11,27,18,5,49,209,248.3968734741211,,,
2018,11,27,18,5,49,213,248.3367919921875,,,
2018,11,27,18,5,49,217,248.20804595947266,,,
2018,11,27,18,5,49,221,248.29387664794922,,,
2018,11,27,18,5,49,225,248.28529357910156,7977.0,4294967267.0,6193.0
2018,11,27,18,5,49,229,248.2595443725586,,,
2018,11,27,18,5,49,233,248.14224243164062,,,
2018,11,27,18,5,49,237,248.016357421875,,,
2018,11,27,18,5,49,241,247.9562759399414,,,
2018,11,27,18,5,49,245,248.08216094970703,7957.0,4294967247.0,6252.0
2018,11,27,18,5,49,249,248.0621337890625,,,
2018,11,27,18,5,49,252,247.67589569091797,,,
2018,11,27,18,5,49,256,247.4212646484375,,,
2018,11,27,18,5,49,260,247.44415283203125,,,
2018,11,27,18,5,49,264,247.50137329101562,8036.0,4294967149.0,6193.0
2018,11,27,18,5,49,268,247.43270874023438,,,
2018,11,27,18,5,49,272,247.4527359008789,,,
2018,11,27,18,5,49,276,247.35546112060547,,,
2018,11,27,18,5,49,280,247.3154067993164,,,
2018,11,27,18,5,49,284,247.2696304321289,7977.0,4294967247.0,6193.0
2018,11,27,18,5,49,288,247.39837646484375,,,
2018,11,27,18,5,49,291,247.35260009765625,,,
2018,11,27,18,5,49,295,247.2667694091797,,,
2018,11,27,18,5,49,299,247.30968475341797,,,
2018,11,27,18,5,49,303,247.34973907470703,7977.0,4294967247.0,6232.0
2018,11,27,18,5,49,307,247.39837646484375,,,
2018,11,27,18,5,49,311,247.45559692382812,,,
2018,11,27,18,5,49,315,247.47276306152344,,,
2018,11,27,18,5,49,319,247.24102020263672,,,
2018,11,27,18,5,49,323,247.35546112060547,,,
2018,11,27,18,5,49,327,247.33257293701172,,,
2018,11,27,18,5,49,331,247.29537963867188,,,
2018,11,27,18,5,49,334,247.13516235351562,,,
2018,11,27,18,5,49,338,247.16949462890625,,,
2018,11,27,18,5,49,342,246.97494506835938,6252.0,7918.0,4294967208.0
2018,11,27,18,5,49,346,247.09510803222656,,,
2018,11,27,18,5,49,350,247.14088439941406,,,
2018,11,27,18,5,49,354,247.09796905517578,,,
2018,11,27,18,5,49,358,247.03216552734375,,,
2018,11,27,18,5,49,362,247.01499938964844,6252.0,7957.0,4294967228.0
2018,11,27,18,5,49,366,247.01499938964844,,,
2018,11,27,18,5,49,370,247.01786041259766,,,
2018,11,27,18,5,49,374,246.8576431274414,,,
2018,11,27,18,5,49,377,246.90628051757812,,,
2018,11,27,18,5,49,381,246.63162231445312,6213.0,8016.0,4294967169.0
2018,11,27,18,5,49,385,246.92630767822266,,,
2018,11,27,18,5,49,389,247.02072143554688,,,
2018,11,27,18,5,49,393,246.9463348388672,,,
2018,11,27,18,5,49,397,246.86050415039062,,,
2018,11,27,18,5,49,401,246.917724609375,6213.0,8036.0,4294967208.0
2018,11,27,18,5,49,405,247.01499938964844,,,
2018,11,27,18,5,49,409,246.97494506835938,,,
2018,11,27,18,5,49,413,247.0264434814453,,,
2018,11,27,18,5,49,416,246.98638916015625,,,
2018,11,27,18,5,49,420,246.96636199951172,6174.0,7977.0,4294967247.0
2018,11,27,18,5,49,424,247.1752166748047,,,
2018,11,27,18,5,49,428,247.54714965820312,,,
2018,11,27,18,5,49,432,247.7703094482422,,,
2018,11,27,18,5,49,436,247.6215362548828,,,
2018,11,27,18,5,49,440,247.4985122680664,6193.0,7977.0,29.0
2018,11,27,18,5,49,444,247.08080291748047,,,
2018,11,27,18,5,49,448,247.0722198486328,,,
2018,11,27,18,5,49,452,246.8576431274414,,,
2018,11,27,18,5,49,456,246.5801239013672,,,
2018,11,27,18,5,49,459,246.51432037353516,6272.0,7938.0,4294967247.0
2018,11,27,18,5,49,463,246.65164947509766,,,
2018,11,27,18,5,49,467,246.67739868164062,,,
2018,11,27,18,5,49,471,246.29688262939453,,,
2018,11,27,18,5,49,475,246.08230590820312,,,
2018,11,27,18,5,49,479,246.09661102294922,6174.0,7938.0,0.0
2018,11,27,18,5,49,483,246.13380432128906,,,
2018,11,27,18,5,49,487,246.1223602294922,,,
2018,11,27,18,5,49,491,246.06800079345703,,,
2018,11,27,18,5,49,495,245.82767486572266,,,
2018,11,27,18,5,49,499,245.92208862304688,6213.0,7996.0,4294967208.0
2018,11,27,18,5,49,502,245.87059020996094,,,
2018,11,27,18,5,49,506,245.8820343017578,,,
2018,11,27,18,5,49,510,246.19674682617188,,,
2018,11,27,18,5,49,514,245.7447052001953,,,
2018,11,27,18,5,49,518,245.78475952148438,6213.0,8016.0,4294967228.0
2018,11,27,18,5,49,522,245.87059020996094,,,
2018,11,27,18,5,49,526,245.8791732788086,,,
2018,11,27,18,5,49,530,245.9249496459961,,,
2018,11,27,18,5,49,534,245.87059020996094,,,
2018,11,27,18,5,49,538,245.76759338378906,6232.0,7996.0,4294967169.0
2018,11,27,18,5,49,541,245.60165405273438,,,
2018,11,27,18,5,49,545,245.7447052001953,,,
2018,11,27,18,5,49,549,246.64878845214844,,,
2018,11,27,18,5,49,553,247.97344207763672,,,
2018,11,27,18,5,49,557,249.4955062866211,6272.0,7996.0,4294967208.0
2018,11,27,18,5,49,561,252.1505355834961,,,
2018,11,27,18,5,49,565,257.08866119384766,,,
2018,11,27,18,5,49,569,263.7176513671875,,,
2018,11,27,18,5,49,573,268.07498931884766,,,
2018,11,27,18,5,49,577,264.6617889404297,6232.0,7938.0,88.0
2018,11,27,18,5,49,581,258.1901550292969,,,
2018,11,27,18,5,49,584,255.80406188964844,,,
2018,11,27,18,5,49,588,250.5512237548828,,,
2018,11,27,18,5,49,592,243.52169036865234,,,
2018,11,27,18,5,49,596,244.75765228271484,6193.0,7938.0,4294967169.0
2018,11,27,18,5,49,600,247.33829498291016,,,
2018,11,27,18,5,49,604,248.08502197265625,,,
2018,11,27,18,5,49,608,248.1822967529297,,,
2018,11,27,18,5,49,612,247.37548828125,,,
2018,11,27,18,5,49,616,246.98638916015625,6213.0,7859.0,49.0
2018,11,27,18,5,49,620,246.88053131103516,,,
2018,11,27,18,5,49,624,246.92916870117188,,,
2018,11,27,18,5,49,627,246.9806671142578,,,
2018,11,27,18,5,49,631,246.82044982910156,,,
2018,11,27,18,5,49,635,246.6144561767578,6134.0,8055.0,4294967130.0
2018,11,27,18,5,49,639,246.44851684570312,,,
2018,11,27,18,5,49,643,246.55437469482422,,,
2018,11,27,18,5,49,647,246.65164947509766,,,
2018,11,27,18,5,49,651,246.62303924560547,,,
2018,11,27,18,5,49,655,246.53148651123047,6252.0,7957.0,29.0
2018,11,27,18,5,49,659,246.60873413085938,,,
2018,11,27,18,5,49,663,246.6888427734375,,,
2018,11,27,18,5,49,666,246.73748016357422,,,
2018,11,27,18,5,49,670,246.86336517333984,,,
2018,11,27,18,5,49,674,246.64878845214844,6213.0,7918.0,4294967287.0
2018,11,27,18,5,49,678,246.87767028808594,,,
2018,11,27,18,5,49,682,247.10941314697266,,,
2018,11,27,18,5,49,686,247.3125457763672,,,
2018,11,27,18,5,49,690,247.36404418945312,,,
2018,11,27,18,5,49,694,247.29537963867188,6213.0,8016.0,4294967287.0
2018,11,27,18,5,49,698,247.37262725830078,,,
2018,11,27,18,5,49,702,247.2553253173828,,,
2018,11,27,18,5,49,706,247.12085723876953,,,
2018,11,27,18,5,49,709,247.4212646484375,,,
2018,11,27,18,5,49,713,247.4956512451172,6311.0,8055.0,4294967149.0
2018,11,27,18,5,49,717,247.5728988647461,,,
2018,11,27,18,5,49,721,247.67303466796875,,,
2018,11,27,18,5,49,725,247.86758422851562,,,
2018,11,27,18,5,49,729,248.02207946777344,,,
2018,11,27,18,5,49,733,247.91908264160156,6350.0,7918.0,4294967247.0
2018,11,27,18,5,49,737,248.19660186767578,,,
2018,11,27,18,5,49,741,248.2280731201172,,,
2018,11,27,18,5,49,745,248.3682632446289,,,
2018,11,27,18,5,49,749,248.52848052978516,,,
2018,11,27,18,5,49,752,248.62289428710938,6193.0,7898.0,4294967267.0
2018,11,27,18,5,49,756,248.47126007080078,,,
2018,11,27,18,5,49,760,248.55709075927734,,,
2018,11,27,18,5,49,764,248.53134155273438,,,
2018,11,27,18,5,49,768,248.98338317871094,,,
2018,11,27,18,5,49,772,248.7659454345703,6213.0,7859.0,4294967228.0
2018,11,27,18,5,49,776,248.5942840576172,,,
2018,11,27,18,5,49,780,248.4598159790039,,,
2018,11,27,18,5,49,784,248.38829040527344,,,
2018,11,27,18,5,49,788,248.21949005126953,,,
2018,11,27,18,5,49,791,247.99346923828125,6232.0,8036.0,4294967228.0
2018,11,27,18,5,49,795,247.7560043334961,,,
2018,11,27,18,5,49,799,247.52426147460938,,,
2018,11,27,18,5,49,803,247.57003784179688,,,
2018,11,27,18,5,49,807,247.27821350097656,,,
2018,11,27,18,5,49,811,247.06077575683594,6193.0,7977.0,4294967149.0
2018,11,27,18,5,49,815,246.6888427734375,,,
2018,11,27,18,5,49,819,246.58584594726562,,,
2018,11,27,18,5,49,823,246.55437469482422,,,
2018,11,27,18,5,49,827,246.47140502929688,,,
2018,11,27,18,5,49,831,245.89920043945312,6272.0,7977.0,9.0
2018,11,27,18,5,49,834,245.7561492919922,,,
2018,11,27,18,5,49,838,245.62454223632812,,,
2018,11,27,18,5,49,842,245.6502914428711,,,
2018,11,27,18,5,49,846,245.78189849853516,,,
2018,11,27,18,5,49,850,245.6216812133789,6193.0,7898.0,4294967149.0
2018,11,27,18,5,49,854,245.20397186279297,,,
2018,11,27,18,5,49,858,245.3784942626953,,,
2018,11,27,18,5,49,862,245.23544311523438,,,
2018,11,27,18,5,49,866,245.27835845947266,,,
2018,11,27,18,5,49,870,245.18966674804688,6272.0,7938.0,49.0
2018,11,27,18,5,49,874,245.03231048583984,,,
2018,11,27,18,5,49,877,244.86923217773438,,,
2018,11,27,18,5,49,881,244.8406219482422,,,
2018,11,27,18,5,49,885,244.84920501708984,,,
2018,11,27,18,5,49,889,244.83489990234375,6252.0,7977.0,4294967267.0
2018,11,27,18,5,49,893,244.78626251220703,,,
2018,11,27,18,5,49,897,244.37427520751953,,,
2018,11,27,18,5,49,901,244.80056762695312,,,
2018,11,27,18,5,49,905,244.9350357055664,,,
2018,11,27,18,5,49,909,244.86064910888672,6174.0,8036.0,4294967267.0
2018,11,27,18,5,49,913,244.78626251220703,,,
2018,11,27,18,5,49,916,244.70901489257812,,,
2018,11,27,18,5,49,920,244.70901489257812,,,
2018,11,27,18,5,49,924,244.85492706298828,,,
2018,11,27,18,5,49,928,244.9350357055664,6232.0,8016.0,4294967169.0
2018,11,27,18,5,49,932,244.92931365966797,,,
2018,11,27,18,5,49,936,244.92359161376953,,,
2018,11,27,18,5,49,940,244.9636459350586,,,
2018,11,27,18,5,49,944,245.0237274169922,,,
2018,11,27,18,5,49,948,245.08094787597656,6213.0,7938.0,4294967287.0
2018,11,27,18,5,49,952,245.03517150878906,,,
2018,11,27,18,5,49,956,245.0723648071289,,,
2018,11,27,18,5,49,959,244.72332000732422,,,
2018,11,27,18,5,49,963,244.86351013183594,,,
2018,11,27,18,5,49,967,244.8720932006836,6213.0,7957.0,4294967208.0
2018,11,27,18,5,49,971,244.85492706298828,,,
2018,11,27,18,5,49,975,244.76337432861328,,,
2018,11,27,18,5,49,979,244.6889877319336,,,
2018,11,27,18,5,49,983,244.6460723876953,,,
2018,11,27,18,5,49,987,244.6460723876953,6213.0,8036.0,4294967247.0
2018,11,27,18,5,49,991,244.62890625,,,
2018,11,27,18,5,49,995,244.5659637451172,,,
2018,11,27,18,5,49,999,244.3685531616211,,,
2018,11,27,18,5,50,2,244.2770004272461,,,
2018,11,27,18,5,50,6,244.30274963378906,6193.0,8055.0,4294967169.0
2018,11,27,18,5,50,10,244.21977996826172,,,
2018,11,27,18,5,50,14,244.07958984375,,,
2018,11,27,18,5,50,18,243.97659301757812,,,
2018,11,27,18,5,50,22,244.44007873535156,,,
2018,11,27,18,5,50,26,244.28272247314453,6193.0,8036.0,4294967189.0
2018,11,27,18,5,50,30,244.27127838134766,,,
2018,11,27,18,5,50,34,244.04239654541016,,,
2018,11,27,18,5,50,38,243.9594268798828,,,
2018,11,27,18,5,50,41,243.96514892578125,,,
2018,11,27,18,5,50,45,244.03095245361328,6213.0,7996.0,4294967247.0
2018,11,27,18,5,50,49,243.9737319946289,,,
2018,11,27,18,5,50,53,243.98231506347656,,,
2018,11,27,18,5,50,57,243.8192367553711,,,
2018,11,27,18,5,50,61,243.8220977783203,,,
2018,11,27,18,5,50,65,243.621826171875,6193.0,7957.0,4294967267.0
2018,11,27,18,5,50,69,243.73912811279297,,,
2018,11,27,18,5,50,73,243.6504364013672,,,
2018,11,27,18,5,50,77,243.44158172607422,,,
2018,11,27,18,5,50,81,243.438720703125,,,
2018,11,27,18,5,50,84,243.43299865722656,6252.0,7996.0,4294967247.0
2018,11,27,18,5,50,88,242.9637908935547,,,
2018,11,27,18,5,50,92,242.9180145263672,,,
2018,11,27,18,5,50,96,242.97237396240234,,,
2018,11,27,18,5,50,100,242.95806884765625,,,
2018,11,27,18,5,50,104,243.02101135253906,6174.0,7996.0,4294967189.0
2018,11,27,18,5,50,108,243.07537078857422,,,
2018,11,27,18,5,50,112,242.97809600830078,,,
2018,11,27,18,5,50,116,242.87796020507812,,,
2018,11,27,18,5,50,120,242.90943145751953,,,
2018,11,27,18,5,50,124,242.89512634277344,6174.0,7957.0,4294967208.0
2018,11,27,18,5,50,127,242.96092987060547,,,
2018,11,27,18,5,50,131,242.8436279296875,,,
2018,11,27,18,5,50,135,242.8150177001953,,,
2018,11,27,18,5,50,139,242.8150177001953,,,
2018,11,27,18,5,50,143,242.7234649658203,6213.0,8016.0,0.0
2018,11,27,18,5,50,147,242.9981231689453,,,
2018,11,27,18,5,50,151,242.77210235595703,,,
2018,11,27,18,5,50,155,242.5861358642578,,,
2018,11,27,18,5,50,159,242.60616302490234,,,
2018,11,27,18,5,50,163,242.63477325439453,6193.0,7996.0,4294967247.0
2018,11,27,18,5,50,166,242.77782440185547,,,
2018,11,27,18,5,50,170,242.66910552978516,,,
2018,11,27,18,5,50,174,242.61188507080078,,,
2018,11,27,18,5,50,178,242.5060272216797,,,
2018,11,27,18,5,50,182,242.52605438232422,6193.0,7977.0,4294967228.0
2018,11,27,18,5,50,186,242.4631118774414,,,
2018,11,27,18,5,50,190,242.60902404785156,,,
2018,11,27,18,5,50,194,242.5546646118164,,,
2018,11,27,18,5,50,198,242.5374984741211,,,
2018,11,27,18,5,50,202,242.3686981201172,6232.0,7879.0,4294967228.0
2018,11,27,18,5,50,206,242.56324768066406,,,
2018,11,27,18,5,50,209,242.54608154296875,,,
2018,11,27,18,5,50,213,242.50030517578125,,,
2018,11,27,18,5,50,217,242.46883392333984,,,
2018,11,27,18,5,50,221,242.4030303955078,6193.0,7938.0,4294967208.0
2018,11,27,18,5,50,225,242.43450164794922,,,
2018,11,27,18,5,50,229,242.4774169921875,,,
2018,11,27,18,5,50,233,242.38014221191406,,,
2018,11,27,18,5,50,237,242.33722686767578,,,
2018,11,27,18,5,50,241,242.42591857910156,6174.0,7996.0,4294967267.0
2018,11,27,18,5,50,245,242.44022369384766,,,
2018,11,27,18,5,50,249,242.68341064453125,,,
2018,11,27,18,5,50,252,242.5060272216797,,,
2018,11,27,18,5,50,256,242.68627166748047,,,
2018,11,27,18,5,50,260,242.67196655273438,6193.0,8016.0,4294967169.0
2018,11,27,18,5,50,264,242.63477325439453,,,
2018,11,27,18,5,50,268,243.03245544433594,,,
2018,11,27,18,5,50,272,243.38150024414062,,,
2018,11,27,18,5,50,276,243.34430694580078,,,
2018,11,27,18,5,50,280,243.72196197509766,6174.0,7977.0,4294967267.0
2018,11,27,18,5,50,284,243.33858489990234,,,
2018,11,27,18,5,50,288,243.12400817871094,,,
2018,11,27,18,5,50,291,242.93231964111328,,,
2018,11,27,18,5,50,295,242.5975799560547,,,
2018,11,27,18,5,50,299,242.39444732666016,6213.0,7996.0,4294967228.0
2018,11,27,18,5,50,303,242.33722686767578,,,
2018,11,27,18,5,50,307,242.41161346435547,,,
2018,11,27,18,5,50,311,242.11406707763672,,,
2018,11,27,18,5,50,315,241.81365966796875,,,
2018,11,27,18,5,50,319,241.64772033691406,,,
2018,11,27,18,5,50,323,241.66202545166016,,,
2018,11,27,18,5,50,327,241.75071716308594,,,
2018,11,27,18,5,50,331,241.7593002319336,,,
2018,11,27,18,5,50,334,241.5475845336914,,,
2018,11,27,18,5,50,338,241.29581451416016,6232.0,8036.0,4294967189.0
2018,11,27,18,5,50,342,241.60194396972656,,,
2018,11,27,18,5,50,346,241.61911010742188,,,
2018,11,27,18,5,50,350,241.5447235107422,,,
2018,11,27,18,5,50,354,241.3616180419922,,,
2018,11,27,18,5,50,358,241.3330078125,6213.0,8036.0,4294967208.0
2018,11,27,18,5,50,362,241.3930892944336,,,
2018,11,27,18,5,50,366,241.33586883544922,,,
2018,11,27,18,5,50,370,241.46747589111328,,,
2018,11,27,18,5,50,374,241.38164520263672,,,
2018,11,27,18,5,50,377,241.36734008789062,6232.0,7996.0,4294967247.0
2018,11,27,18,5,50,381,241.42742156982422,,,
2018,11,27,18,5,50,385,241.31011962890625,,,
2018,11,27,18,5,50,389,241.55044555664062,,,
2018,11,27,18,5,50,393,242.76351928710938,,,
2018,11,27,18,5,50,397,244.18258666992188,6252.0,7996.0,4294967169.0
2018,11,27,18,5,50,401,245.73898315429688,,,
2018,11,27,18,5,50,405,249.62425231933594,,,
2018,11,27,18,5,50,409,256.08158111572266,,,
2018,11,27,18,5,50,413,262.39871978759766,,,
2018,11,27,18,5,50,416,263.3399963378906,6330.0,7898.0,0.0
2018,11,27,18,5,50,420,257.13443756103516,,,
2018,11,27,18,5,50,424,252.78568267822266,,,
2018,11,27,18,5,50,428,250.78582763671875,,,
2018,11,27,18,5,50,432,241.7306900024414,,,
2018,11,27,18,5,50,436,239.36748504638672,6232.0,7938.0,4294967110.0
2018,11,27,18,5,50,440,241.87946319580078,,,
2018,11,27,18,5,50,444,243.5588836669922,,,
2018,11,27,18,5,50,448,244.0052032470703,,,
2018,11,27,18,5,50,452,243.44158172607422,,,
2018,11,27,18,5,50,456,242.74635314941406,6174.0,7898.0,4294967287.0
2018,11,27,18,5,50,459,242.61474609375,,,
2018,11,27,18,5,50,463,242.60330200195312,,,
2018,11,27,18,5,50,467,242.5403594970703,,,
2018,11,27,18,5,50,471,242.66338348388672,,,
2018,11,27,18,5,50,475,242.29717254638672,6193.0,8143.0,4294967228.0
2018,11,27,18,5,50,479,242.33150482177734,,,
2018,11,27,18,5,50,483,242.49744415283203,,,
2018,11,27,18,5,50,487,242.52033233642578,,,
2018,11,27,18,5,50,491,242.38872528076172,,,
2018,11,27,18,5,50,495,242.31433868408203,6272.0,8016.0,49.0
2018,11,27,18,5,50,499,242.33150482177734,,,
2018,11,27,18,5,50,502,242.4144744873047,,,
2018,11,27,18,5,50,506,242.42019653320312,,,
2018,11,27,18,5,50,510,242.44308471679688,,,
2018,11,27,18,5,50,514,242.34294891357422,6213.0,7918.0,4294967267.0
2018,11,27,18,5,50,518,242.53177642822266,,,
2018,11,27,18,5,50,522,242.6004409790039,,,
2018,11,27,18,5,50,526,242.7835464477539,,,
2018,11,27,18,5,50,530,242.85221099853516,,,
2018,11,27,18,5,50,534,242.92945861816406,6134.0,8075.0,4294967189.0
2018,11,27,18,5,50,538,242.57755279541016,,,
2018,11,27,18,5,50,541,242.80071258544922,,,
2018,11,27,18,5,50,545,242.92373657226562,,,
2018,11,27,18,5,50,549,243.07823181152344,,,
2018,11,27,18,5,50,553,243.12114715576172,6252.0,7996.0,4294967208.0
2018,11,27,18,5,50,557,243.2270050048828,,,
2018,11,27,18,5,50,561,243.44158172607422,,,
2018,11,27,18,5,50,565,243.56746673583984,,,
2018,11,27,18,5,50,569,243.7419891357422,,,
2018,11,27,18,5,50,573,243.71337890625,6252.0,7879.0,4294967208.0
2018,11,27,18,5,50,577,243.80207061767578,,,
2018,11,27,18,5,50,581,244.02236938476562,,,
2018,11,27,18,5,50,584,244.22264099121094,,,
2018,11,27,18,5,50,588,244.27127838134766,,,
2018,11,27,18,5,50,592,244.1997528076172,6213.0,7898.0,4294967267.0
2018,11,27,18,5,50,596,244.1082000732422,,,
2018,11,27,18,5,50,600,244.0023422241211,,,
2018,11,27,18,5,50,604,244.11678314208984,,,
2018,11,27,18,5,50,608,244.1253662109375,,,
2018,11,27,18,5,50,612,243.96514892578125,6193.0,8036.0,4294967267.0
2018,11,27,18,5,50,616,243.896484375,,,
2018,11,27,18,5,50,620,243.80779266357422,,,
2018,11,27,18,5,50,624,243.82495880126953,,,
2018,11,27,18,5,50,627,243.7276840209961,,,
2018,11,27,18,5,50,631,243.5588836669922,6174.0,8016.0,4294967169.0
2018,11,27,18,5,50,635,243.12400817871094,,,
2018,11,27,18,5,50,639,243.1497573852539,,,
2018,11,27,18,5,50,643,243.04962158203125,,,
2018,11,27,18,5,50,647,242.84076690673828,,,
2018,11,27,18,5,50,651,242.70057678222656,6232.0,7996.0,4294967208.0
2018,11,27,18,5,50,655,242.31719970703125,,,
2018,11,27,18,5,50,659,242.11978912353516,,,
2018,11,27,18,5,50,663,241.81652069091797,,,
2018,11,27,18,5,50,666,241.75071716308594,,,
2018,11,27,18,5,50,670,241.72210693359375,6291.0,7957.0,0.0
2018,11,27,18,5,50,674,241.61911010742188,,,
2018,11,27,18,5,50,678,241.53614044189453,,,
2018,11,27,18,5,50,682,241.49036407470703,,,
2018,11,27,18,5,50,686,241.52183532714844,,,
2018,11,27,18,5,50,690,241.37020111083984,6213.0,7957.0,4294967051.0
2018,11,27,18,5,50,694,241.23287200927734,,,
2018,11,27,18,5,50,698,241.11270904541016,,,
2018,11,27,18,5,50,702,241.03260040283203,,,
2018,11,27,18,5,50,706,240.97537994384766,,,
2018,11,27,18,5,50,709,240.97251892089844,6193.0,8016.0,4294967267.0
2018,11,27,18,5,50,713,240.71216583251953,,,
2018,11,27,18,5,50,717,240.64064025878906,,,
2018,11,27,18,5,50,721,240.59200286865234,,,
2018,11,27,18,5,50,725,240.2629852294922,,,
2018,11,27,18,5,50,729,240.45467376708984,6213.0,8016.0,4294967287.0
2018,11,27,18,5,50,733,240.37456512451172,,,
2018,11,27,18,5,50,737,240.27442932128906,,,
2018,11,27,18,5,50,741,240.25726318359375,,,
2018,11,27,18,5,50,745,240.31448364257812,,,
2018,11,27,18,5,50,749,240.37742614746094,6154.0,8036.0,4294967267.0
2018,11,27,18,5,50,752,240.40889739990234,,,
2018,11,27,18,5,50,756,240.32878875732422,,,
2018,11,27,18,5,50,760,240.33451080322266,,,
2018,11,27,18,5,50,764,240.37456512451172,,,
2018,11,27,18,5,50,768,240.36884307861328,6174.0,8036.0,4294967208.0
2018,11,27,18,5,50,772,240.3573989868164,,,
2018,11,27,18,5,50,776,240.29159545898438,,,
2018,11,27,18,5,50,780,240.2629852294922,,,
2018,11,27,18,5,50,784,240.4317855834961,,,
2018,11,27,18,5,50,788,240.74649810791016,6252.0,7977.0,0.0
2018,11,27,18,5,50,791,240.45467376708984,,,
2018,11,27,18,5,50,795,240.2515411376953,,,
2018,11,27,18,5,50,799,240.36884307861328,,,
2018,11,27,18,5,50,803,240.4346466064453,,,
2018,11,27,18,5,50,807,240.48328399658203,6213.0,7957.0,4294967267.0
2018,11,27,18,5,50,811,240.44036865234375,,,
2018,11,27,18,5,50,815,240.27156829833984,,,
2018,11,27,18,5,50,819,240.30303955078125,,,
2018,11,27,18,5,50,823,240.3116226196289,,,
2018,11,27,18,5,50,827,240.33451080322266,6213.0,8036.0,4294967247.0
2018,11,27,18,5,50,831,240.2658462524414,,,
2018,11,27,18,5,50,834,240.09418487548828,,,
2018,11,27,18,5,50,838,240.00263214111328,,,
2018,11,27,18,5,50,842,240.02552032470703,,,
2018,11,27,18,5,50,846,240.02838134765625,6213.0,8094.0,4294967189.0
2018,11,27,18,5,50,850,239.92252349853516,,,
2018,11,27,18,5,50,854,240.06271362304688,,,
2018,11,27,18,5,50,858,239.68505859375,,,
2018,11,27,18,5,50,862,239.73369598388672,,,
2018,11,27,18,5,50,866,239.75372314453125,6154.0,7996.0,4294967247.0
2018,11,27,18,5,50,870,239.64214324951172,,,
2018,11,27,18,5,50,874,239.45331573486328,,,
2018,11,27,18,5,50,877,239.49050903320312,,,
2018,11,27,18,5,50,881,239.46475982666016,,,
2018,11,27,18,5,50,885,239.45903778076172,6174.0,8016.0,4294967287.0
2018,11,27,18,5,50,889,239.5305633544922,,,
2018,11,27,18,5,50,893,239.27879333496094,,,
2018,11,27,18,5,50,897,239.17579650878906,,,
2018,11,27,18,5,50,901,239.1357421875,,,
2018,11,27,18,5,50,905,239.03274536132812,6252.0,7977.0,9.0
2018,11,27,18,5,50,909,239.23015594482422,,,
2018,11,27,18,5,50,913,239.13288116455078,,,
2018,11,27,18,5,50,916,239.04132843017578,,,
2018,11,27,18,5,50,920,238.92974853515625,,,
2018,11,27,18,5,50,924,239.04991149902344,6232.0,7977.0,4294967228.0
2018,11,27,18,5,50,928,238.98696899414062,,,
2018,11,27,18,5,50,932,238.89541625976562,,,
2018,11,27,18,5,50,936,238.76380920410156,,,
2018,11,27,18,5,50,940,238.61217498779297,,,
2018,11,27,18,5,50,944,238.87252807617188,6213.0,7938.0,4294967228.0
2018,11,27,18,5,50,948,238.8010025024414,,,
2018,11,27,18,5,50,952,238.77811431884766,,,
2018,11,27,18,5,50,956,238.6493682861328,,,
2018,11,27,18,5,50,959,238.57498168945312,,,
2018,11,27,18,5,50,963,238.4634017944336,6272.0,7977.0,4294967267.0
2018,11,27,18,5,50,967,238.56639862060547,,,
2018,11,27,18,5,50,971,238.56067657470703,,,
2018,11,27,18,5,50,975,238.44337463378906,,,
2018,11,27,18,5,50,979,238.2974624633789,,,
2018,11,27,18,5,50,983,238.5721206665039,6213.0,8016.0,4294967247.0
2018,11,27,18,5,50,987,238.60645294189453,,,
2018,11,27,18,5,50,991,238.60931396484375,,,
2018,11,27,18,5,50,995,238.36612701416016,,,
2018,11,27,18,5,50,999,238.45195770263672,,,
2018,11,27,18,5,51,2,238.50059509277344,6193.0,7996.0,4294967287.0
2018,11,27,18,5,51,6,238.60931396484375,,,
2018,11,27,18,5,51,10,238.55209350585938,,,
2018,11,27,18,5,51,14,238.38043212890625,,,
2018,11,27,18,5,51,18,238.2974624633789,,,
2018,11,27,18,5,51,22,238.36612701416016,6272.0,7938.0,4294967287.0
2018,11,27,18,5,51,26,238.2030487060547,,,
2018,11,27,18,5,51,30,238.36612701416016,,,
2018,11,27,18,5,51,34,238.24310302734375,,,
2018,11,27,18,5,51,38,238.2059097290039,,,
2018,11,27,18,5,51,41,238.21163177490234,6252.0,7918.0,4294967247.0
2018,11,27,18,5,51,45,238.5263442993164,,,
2018,11,27,18,5,51,49,238.71803283691406,,,
2018,11,27,18,5,51,53,238.56639862060547,,,
2018,11,27,18,5,51,57,238.3861541748047,,,
2018,11,27,18,5,51,61,238.39473724365234,6193.0,7977.0,4294967287.0
2018,11,27,18,5,51,65,238.4319305419922,,,
2018,11,27,18,5,51,69,238.53778839111328,,,
2018,11,27,18,5,51,73,238.42906951904297,,,
2018,11,27,18,5,51,77,238.2831573486328,,,
2018,11,27,18,5,51,81,238.21735382080078,6232.0,8055.0,4294967149.0
2018,11,27,18,5,51,84,238.28887939453125,,,
2018,11,27,18,5,51,88,238.4204864501953,,,
2018,11,27,18,5,51,92,238.4347915649414,,,
2018,11,27,18,5,51,96,238.31462860107422,,,
2018,11,27,18,5,51,100,238.31748962402344,6232.0,8094.0,4294967208.0
2018,11,27,18,5,51,104,238.5721206665039,,,
2018,11,27,18,5,51,108,238.6951446533203,,,
2018,11,27,18,5,51,112,238.65509033203125,,,
2018,11,27,18,5,51,116,238.81816864013672,,,
2018,11,27,18,5,51,120,239.1214370727539,6291.0,8055.0,4294967208.0
2018,11,27,18,5,51,124,239.39895629882812,,,
2018,11,27,18,5,51,127,239.32170867919922,,,
2018,11,27,18,5,51,131,239.04132843017578,,,
2018,11,27,18,5,51,135,238.86394500732422,,,
2018,11,27,18,5,51,139,238.80672454833984,6252.0,8055.0,4294967189.0
2018,11,27,18,5,51,143,238.45767974853516,,,
2018,11,27,18,5,51,147,238.39473724365234,,,
2018,11,27,18,5,51,151,238.49773406982422,,,
2018,11,27,18,5,51,155,238.36326599121094,,,
2018,11,27,18,5,51,159,238.12580108642578,6193.0,8055.0,9.0
2018,11,27,18,5,51,163,237.9913330078125,,,
2018,11,27,18,5,51,166,237.9913330078125,,,
2018,11,27,18,5,51,170,237.66231536865234,,,
2018,11,27,18,5,51,174,237.65087127685547,,,
2018,11,27,18,5,51,178,237.6537322998047,6193.0,8036.0,4294967149.0
2018,11,27,18,5,51,182,237.66231536865234,,,
2018,11,27,18,5,51,186,237.72811889648438,,,
2018,11,27,18,5,51,190,237.68234252929688,,,
2018,11,27,18,5,51,194,237.6565933227539,,,
2018,11,27,18,5,51,198,237.56790161132812,6193.0,8055.0,4294967287.0
2018,11,27,18,5,51,202,237.66231536865234,,,
2018,11,27,18,5,51,206,237.70809173583984,,,
2018,11,27,18,5,51,209,237.7910614013672,,,
2018,11,27,18,5,51,213,237.68234252929688,,,
2018,11,27,18,5,51,217,237.6880645751953,6154.0,7996.0,9.0
2018,11,27,18,5,51,221,237.7309799194336,,,
2018,11,27,18,5,51,225,237.75386810302734,,,
2018,11,27,18,5,51,229,237.85972595214844,,,
2018,11,27,18,5,51,233,237.57648468017578,,,
2018,11,27,18,5,51,237,237.6079559326172,6154.0,8094.0,9.0
2018,11,27,18,5,51,241,238.71517181396484,,,
2018,11,27,18,5,51,245,240.30017852783203,,,
2018,11,27,18,5,51,249,242.03968048095703,,,
2018,11,27,18,5,51,252,245.91636657714844,,,
2018,11,27,18,5,51,256,251.5554428100586,6213.0,8016.0,4294967208.0
2018,11,27,18,5,51,260,258.00132751464844,,,
2018,11,27,18,5,51,264,259.30309295654297,,,
2018,11,27,18,5,51,268,253.8614273071289,,,
2018,11,27,18,5,51,272,249.2809295654297,,,
2018,11,27,18,5,51,276,246.92058563232422,6154.0,7977.0,9.0
2018,11,27,18,5,51,280,237.99991607666016,,,
2018,11,27,18,5,51,284,235.46218872070312,,,
2018,11,27,18,5,51,288,238.11721801757812,,,
2018,11,27,18,5,51,291,239.7909164428711,,,
2018,11,27,18,5,51,295,240.32878875732422,6154.0,7938.0,4294967110.0
2018,11,27,18,5,51,299,240.00835418701172,,,
2018,11,27,18,5,51,303,239.9768829345703,,,
2018,11,27,18,5,51,307,239.62783813476562,,,
2018,11,27,18,5,51,311,239.57061767578125,,,
2018,11,27,18,5,51,315,239.51339721679688,,,
2018,11,27,18,5,51,319,239.3360137939453,,,
2018,11,27,18,5,51,323,239.33029174804688,,,
2018,11,27,18,5,51,327,239.5477294921875,,,
2018,11,27,18,5,51,331,239.69078063964844,,,
2018,11,27,18,5,51,334,239.6707534790039,4294967267.0,6134.0,8036.0
2018,11,27,18,5,51,338,239.8395538330078,,,
2018,11,27,18,5,51,342,239.95113372802734,,,
2018,11,27,18,5,51,346,240.04840850830078,,,
2018,11,27,18,5,51,350,240.11993408203125,,,
2018,11,27,18,5,51,354,239.93396759033203,68.0,6066.0,8055.0
2018,11,27,18,5,51,358,240.0827407836914,,,
2018,11,27,18,5,51,362,240.1742935180664,,,
2018,11,27,18,5,51,366,240.8609390258789,,,
2018,11,27,18,5,51,370,241.07837677001953,,,
2018,11,27,18,5,51,374,241.16134643554688,88.0,6066.0,8222.0
2018,11,27,18,5,51,377,241.1355972290039,,,
2018,11,27,18,5,51,381,241.10698699951172,,,
2018,11,27,18,5,51,385,241.35589599609375,,,
2018,11,27,18,5,51,389,241.46175384521484,,,
2018,11,27,18,5,51,393,241.3644790649414,4294967267.0,6193.0,8300.0
2018,11,27,18,5,51,397,241.43028259277344,,,
2018,11,27,18,5,51,401,241.607666015625,,,
2018,11,27,18,5,51,405,241.81652069091797,,,
2018,11,27,18,5,51,409,241.92237854003906,,,
2018,11,27,18,5,51,413,241.9910430908203,4294967189.0,6252.0,8036.0
2018,11,27,18,5,51,416,242.08831787109375,,,
2018,11,27,18,5,51,420,242.29717254638672,,,
2018,11,27,18,5,51,424,242.58041381835938,,,
2018,11,27,18,5,51,428,242.60616302490234,,,
2018,11,27,18,5,51,432,242.6004409790039,49.0,6105.0,8036.0
2018,11,27,18,5,51,436,242.57183074951172,,,
2018,11,27,18,5,51,440,242.72918701171875,,,
2018,11,27,18,5,51,444,242.8750991821289,,,
2018,11,27,18,5,51,448,242.9351806640625,,,
2018,11,27,18,5,51,452,243.0438995361328,29.0,6115.0,8016.0
2018,11,27,18,5,51,456,242.90943145751953,,,
2018,11,27,18,5,51,459,242.81787872314453,,,
2018,11,27,18,5,51,463,242.82360076904297,,,
2018,11,27,18,5,51,467,242.75779724121094,,,
2018,11,27,18,5,51,471,242.5861358642578,4294967287.0,6105.0,8016.0
2018,11,27,18,5,51,475,242.3572540283203,,,
2018,11,27,18,5,51,479,242.2943115234375,,,
2018,11,27,18,5,51,483,242.15126037597656,,,
2018,11,27,18,5,51,487,242.02251434326172,,,
2018,11,27,18,5,51,491,241.70780181884766,9.0,6066.0,7996.0
2018,11,27,18,5,51,495,241.69635772705078,,,
2018,11,27,18,5,51,499,241.49322509765625,,,
2018,11,27,18,5,51,502,241.33872985839844,,,
2018,11,27,18,5,51,506,241.20426177978516,,,
2018,11,27,18,5,51,510,240.83232879638672,4294967267.0,6085.0,8055.0
2018,11,27,18,5,51,514,240.54622650146484,,,
2018,11,27,18,5,51,518,240.30590057373047,,,
2018,11,27,18,5,51,522,240.32878875732422,,,
2018,11,27,18,5,51,526,240.19432067871094,,,
2018,11,27,18,5,51,530,239.9911880493164,186.0,6134.0,8075.0
2018,11,27,18,5,51,534,239.53914642333984,,,
2018,11,27,18,5,51,538,239.49050903320312,,,
2018,11,27,18,5,51,541,239.32743072509766,,,
2018,11,27,18,5,51,545,239.28451538085938,,,
2018,11,27,18,5,51,549,239.04991149902344,29.0,6085.0,7957.0
2018,11,27,18,5,51,553,238.80672454833984,,,
2018,11,27,18,5,51,557,238.27743530273438,,,
2018,11,27,18,5,51,561,238.42906951904297,,,
2018,11,27,18,5,51,565,238.4204864501953,,,
2018,11,27,18,5,51,569,238.26026916503906,49.0,6134.0,8055.0
2018,11,27,18,5,51,573,237.9283905029297,,,
2018,11,27,18,5,51,577,237.72239685058594,,,
2018,11,27,18,5,51,581,237.6079559326172,,,
2018,11,27,18,5,51,584,237.63370513916016,,,
2018,11,27,18,5,51,588,237.6251220703125,0.0,6085.0,8036.0
2018,11,27,18,5,51,592,237.5192642211914,,,
2018,11,27,18,5,51,596,237.37335205078125,,,
2018,11,27,18,5,51,600,237.31040954589844,,,
2018,11,27,18,5,51,604,237.45346069335938,,,
2018,11,27,18,5,51,608,237.40482330322266,9.0,6027.0,8036.0
2018,11,27,18,5,51,612,237.3361587524414,,,
2018,11,27,18,5,51,616,237.2417449951172,,,
2018,11,27,18,5,51,620,237.2303009033203,,,
2018,11,27,18,5,51,624,237.29610443115234,,,
2018,11,27,18,5,51,627,237.33043670654297,9.0,6066.0,8163.0
2018,11,27,18,5,51,631,237.18738555908203,,,
2018,11,27,18,5,51,635,237.19310760498047,,,
2018,11,27,18,5,51,639,237.03861236572266,,,
2018,11,27,18,5,51,643,237.12158203125,,,
2018,11,27,18,5,51,647,237.0586395263672,49.0,6174.0,8094.0
2018,11,27,18,5,51,651,236.93561553955078,,,
2018,11,27,18,5,51,655,236.572265625,,,
2018,11,27,18,5,51,659,236.8612289428711,,,
2018,11,27,18,5,51,663,236.75537109375,,,
2018,11,27,18,5,51,666,236.7696762084961,0.0,6134.0,8075.0
2018,11,27,18,5,51,670,236.64379119873047,,,
2018,11,27,18,5,51,674,236.62662506103516,,,
2018,11,27,18,5,51,678,236.55223846435547,,,
2018,11,27,18,5,51,682,236.55223846435547,,,
2018,11,27,18,5,51,686,236.69815063476562,68.0,6046.0,8114.0
2018,11,27,18,5,51,690,236.73534393310547,,,
2018,11,27,18,5,51,694,236.49215698242188,,,
2018,11,27,18,5,51,698,236.35196685791016,,,
2018,11,27,18,5,51,702,236.3605499267578,,,
2018,11,27,18,5,51,706,236.33480072021484,49.0,6027.0,8183.0
2018,11,27,18,5,51,709,236.26041412353516,,,
2018,11,27,18,5,51,713,235.9600067138672,,,
2018,11,27,18,5,51,717,236.00006103515625,,,
2018,11,27,18,5,51,721,235.86559295654297,,,
2018,11,27,18,5,51,725,235.93425750732422,4294967247.0,6046.0,8094.0
2018,11,27,18,5,51,729,235.81409454345703,,,
2018,11,27,18,5,51,733,235.65101623535156,,,
2018,11,27,18,5,51,737,235.4907989501953,,,
2018,11,27,18,5,51,741,235.41641235351562,,,
2018,11,27,18,5,51,745,235.3649139404297,49.0,6027.0,8222.0
2018,11,27,18,5,51,749,235.02445220947266,,,
2018,11,27,18,5,51,752,235.02731323242188,,,
2018,11,27,18,5,51,756,234.99298095703125,,,
2018,11,27,18,5,51,760,234.91859436035156,,,
2018,11,27,18,5,51,764,234.81273651123047,4294967267.0,6046.0,8202.0
2018,11,27,18,5,51,768,234.87281799316406,,,
2018,11,27,18,5,51,772,234.77840423583984,,,
2018,11,27,18,5,51,776,234.56382751464844,,,
2018,11,27,18,5,51,780,234.56096649169922,,,
2018,11,27,18,5,51,784,234.55238342285156,4294967287.0,6046.0,8114.0
2018,11,27,18,5,51,788,234.44366455078125,,,
2018,11,27,18,5,51,791,234.46369171142578,,,
2018,11,27,18,5,51,795,234.27772521972656,,,
2018,11,27,18,5,51,799,234.30347442626953,,,
2018,11,27,18,5,51,803,234.30919647216797,4294967189.0,6085.0,8036.0
2018,11,27,18,5,51,807,234.2662811279297,,,
2018,11,27,18,5,51,811,234.11178588867188,,,
2018,11,27,18,5,51,815,234.13753509521484,,,
2018,11,27,18,5,51,819,233.81996154785156,,,
2018,11,27,18,5,51,823,233.95729064941406,4294967287.0,6007.0,8036.0
2018,11,27,18,5,51,827,233.8571548461914,,,
2018,11,27,18,5,51,831,233.83426666259766,,,
2018,11,27,18,5,51,834,233.73985290527344,,,
2018,11,27,18,5,51,838,233.75988006591797,,,
2018,11,27,18,5,51,842,233.73699188232422,4294967267.0,6046.0,8094.0
2018,11,27,18,5,51,846,233.80279541015625,,,
2018,11,27,18,5,51,850,233.71410369873047,,,
2018,11,27,18,5,51,854,233.6111068725586,,,
2018,11,27,18,5,51,858,233.5195541381836,,,
2018,11,27,18,5,51,862,233.50238800048828,4294967247.0,6027.0,8094.0
2018,11,27,18,5,51,866,233.40225219726562,,,
2018,11,27,18,5,51,870,233.46233367919922,,,
2018,11,27,18,5,51,874,233.39080810546875,,,
2018,11,27,18,5,51,877,233.14762115478516,,,
2018,11,27,18,5,51,881,232.88726806640625,4294967228.0,6046.0,8114.0
2018,11,27,18,5,51,885,233.0160140991211,,,
2018,11,27,18,5,51,889,233.01029205322266,,,
2018,11,27,18,5,51,893,232.99598693847656,,,
2018,11,27,18,5,51,897,232.95021057128906,,,
2018,11,27,18,5,51,901,232.99026489257812,0.0,6027.0,8143.0
2018,11,27,18,5,51,905,233.0760955810547,,,
2018,11,27,18,5,51,909,233.08181762695312,,,
2018,11,27,18,5,51,913,232.95021057128906,,,
2018,11,27,18,5,51,916,233.1562042236328,,,
2018,11,27,18,5,51,920,233.20484161376953,4294967169.0,6085.0,8114.0
2018,11,27,18,5,51,924,233.16192626953125,,,
2018,11,27,18,5,51,928,233.39366912841797,,,
2018,11,27,18,5,51,932,233.4423065185547,,,
2018,11,27,18,5,51,936,233.5367202758789,,,
2018,11,27,18,5,51,940,233.81710052490234,4294967287.0,6085.0,8143.0
2018,11,27,18,5,51,944,234.38072204589844,,,
2018,11,27,18,5,51,948,234.24911499023438,,,
2018,11,27,18,5,51,952,233.9000701904297,,,
2018,11,27,18,5,51,956,233.77418518066406,,,
2018,11,27,18,5,51,959,233.69121551513672,0.0,6066.0,8134.0
2018,11,27,18,5,51,963,233.64543914794922,,,
2018,11,27,18,5,51,967,233.4308624267578,,,
2018,11,27,18,5,51,971,233.25061798095703,,,
2018,11,27,18,5,51,975,233.12759399414062,,,
2018,11,27,18,5,51,979,232.85865783691406,9.0,6105.0,8183.0
2018,11,27,18,5,51,983,232.62405395507812,,,
2018,11,27,18,5,51,987,232.66124725341797,,,
2018,11,27,18,5,51,991,232.66124725341797,,,
2018,11,27,18,5,51,995,232.5267791748047,,,
2018,11,27,18,5,51,999,232.48672485351562,4294967208.0,6115.0,8114.0
2018,11,27,18,5,52,2,232.62977600097656,,,
2018,11,27,18,5,52,6,232.9874038696289,,,
2018,11,27,18,5,52,10,232.71846771240234,,,
2018,11,27,18,5,52,14,232.53822326660156,,,
2018,11,27,18,5,52,18,232.45811462402344,4294967267.0,6066.0,8202.0
2018,11,27,18,5,52,22,232.5725555419922,,,
2018,11,27,18,5,52,26,232.6498031616211,,,
2018,11,27,18,5,52,30,232.6068878173828,,,
2018,11,27,18,5,52,34,232.44094848632812,,,
2018,11,27,18,5,52,38,232.3465347290039,29.0,6154.0,8202.0
2018,11,27,18,5,52,41,232.40375518798828,,,
2018,11,27,18,5,52,45,232.36656188964844,,,
2018,11,27,18,5,52,49,232.33509063720703,,,
2018,11,27,18,5,52,53,232.5611114501953,,,
2018,11,27,18,5,52,57,233.19339752197266,9.0,6085.0,8261.0
2018,11,27,18,5,52,61,234.82131958007812,,,
2018,11,27,18,5,52,65,237.0443344116211,,,
2018,11,27,18,5,52,69,240.1599884033203,,,
2018,11,27,18,5,52,73,243.71051788330078,,,
2018,11,27,18,5,52,77,249.5269775390625,4294967267.0,6085.0,8134.0
2018,11,27,18,5,52,81,253.41224670410156,,,
2018,11,27,18,5,52,84,252.55393981933594,,,
2018,11,27,18,5,52,88,246.02222442626953,,,
2018,11,27,18,5,52,92,239.4561767578125,,,
2018,11,27,18,5,52,96,235.42213439941406,4294967247.0,5987.0,8055.0
2018,11,27,18,5,52,100,228.607177734375,,,
2018,11,27,18,5,52,104,226.318359375,,,
2018,11,27,18,5,52,108,228.64723205566406,,,
2018,11,27,18,5,52,112,231.21929168701172,,,
2018,11,27,18,5,52,116,232.55538940429688,88.0,5968.0,8320.0
2018,11,27,18,5,52,120,232.9416275024414,,,
2018,11,27,18,5,52,124,232.82146453857422,,,
2018,11,27,18,5,52,127,232.8472137451172,,,
2018,11,27,18,5,52,131,232.5725555419922,,,
2018,11,27,18,5,52,135,232.54108428955078,4294967051.0,6007.0,8300.0
2018,11,27,18,5,52,139,232.2063446044922,,,
2018,11,27,18,5,52,143,232.36083984375,,,
2018,11,27,18,5,52,147,232.46383666992188,,,
2018,11,27,18,5,52,151,232.44667053222656,,,
2018,11,27,18,5,52,155,232.31792449951172,29.0,6046.0,8055.0
2018,11,27,18,5,52,159,232.44667053222656,,,
2018,11,27,18,5,52,163,232.45811462402344,,,
2018,11,27,18,5,52,166,232.50102996826172,,,
2018,11,27,18,5,52,170,232.59830474853516,,,
2018,11,27,18,5,52,174,232.5153350830078,107.0,5948.0,7977.0
2018,11,27,18,5,52,178,232.38086700439453,,,
2018,11,27,18,5,52,182,232.54108428955078,,,
2018,11,27,18,5,52,186,232.72705078125,,,
2018,11,27,18,5,52,190,232.70702362060547,,,
2018,11,27,18,5,52,194,232.5897216796875,9.0,5909.0,8114.0
2018,11,27,18,5,52,198,232.48672485351562,,,
2018,11,27,18,5,52,202,232.68699645996094,,,
2018,11,27,18,5,52,206,232.7442169189453,,,
2018,11,27,18,5,52,209,232.86151885986328,,,
2018,11,27,18,5,52,213,232.95021057128906,4294967247.0,5948.0,8241.0
2018,11,27,18,5,52,217,232.9845428466797,,,
2018,11,27,18,5,52,221,232.99884796142578,,,
2018,11,27,18,5,52,225,232.95307159423828,,,
2018,11,27,18,5,52,229,233.4451675415039,,,
2018,11,27,18,5,52,233,233.57677459716797,4294967247.0,5889.0,8281.0
2018,11,27,18,5,52,237,233.54530334472656,,,
2018,11,27,18,5,52,241,233.58535766601562,,,
2018,11,27,18,5,52,245,233.83712768554688,,,
2018,11,27,18,5,52,249,233.85143280029297,,,
2018,11,27,18,5,52,252,233.88290405273438,0.0,5850.0,8281.0
2018,11,27,18,5,52,256,233.9773178100586,,,
2018,11,27,18,5,52,260,234.16614532470703,,,
2018,11,27,18,5,52,264,234.26342010498047,,,
2018,11,27,18,5,52,268,234.26055908203125,,,
2018,11,27,18,5,52,272,234.32064056396484,49.0,5831.0,8183.0
2018,11,27,18,5,52,276,234.35497283935547,,,
2018,11,27,18,5,52,280,234.31777954101562,,,
2018,11,27,18,5,52,284,234.2662811279297,,,
2018,11,27,18,5,52,288,234.34066772460938,,,
2018,11,27,18,5,52,291,234.23194885253906,9.0,5850.0,8163.0
2018,11,27,18,5,52,295,234.1146469116211,,,
2018,11,27,18,5,52,299,233.9000701904297,,,
2018,11,27,18,5,52,303,233.97445678710938,,,
2018,11,27,18,5,52,307,233.54530334472656,,,
2018,11,27,18,5,52,311,233.51383209228516,,,
2018,11,27,18,5,52,315,233.28781127929688,,,
2018,11,27,18,5,52,319,232.99884796142578,,,
2018,11,27,18,5,52,323,232.74707794189453,,,
2018,11,27,18,5,52,327,232.54966735839844,,,
2018,11,27,18,5,52,331,232.53250122070312,,,
2018,11,27,18,5,52,334,232.44380950927734,,,
2018,11,27,18,5,52,338,232.0261001586914,,,
2018,11,27,18,5,52,342,231.99462890625,,,
2018,11,27,18,5,52,346,231.9774627685547,,,
2018,11,27,18,5,52,350,231.70852661132812,8281.0,4294967130.0,5831.0
2018,11,27,18,5,52,354,231.47106170654297,,,
2018,11,27,18,5,52,358,231.37664794921875,,,
2018,11,27,18,5,52,362,231.30226135253906,,,
2018,11,27,18,5,52,366,231.11915588378906,,,
2018,11,27,18,5,52,370,230.93605041503906,8320.0,49.0,5791.0
2018,11,27,18,5,52,374,230.58700561523438,,,
2018,11,27,18,5,52,377,230.255126953125,,,
2018,11,27,18,5,52,381,230.2379608154297,,,
2018,11,27,18,5,52,385,230.1006317138672,,,
2018,11,27,18,5,52,389,229.78591918945312,8437.0,4294967228.0,5831.0
2018,11,27,18,5,52,393,229.79736328125,,,
2018,11,27,18,5,52,397,229.51984405517578,,,
2018,11,27,18,5,52,401,229.61139678955078,,,
2018,11,27,18,5,52,405,229.4912338256836,,,
2018,11,27,18,5,52,409,229.4626235961914,8359.0,9.0,5772.0
2018,11,27,18,5,52,413,229.2623519897461,,,
2018,11,27,18,5,52,416,229.30526733398438,,,
2018,11,27,18,5,52,420,229.25090789794922,,,
2018,11,27,18,5,52,424,229.2652130126953,,,
2018,11,27,18,5,52,428,229.1393280029297,8300.0,0.0,5693.0
2018,11,27,18,5,52,432,228.9905548095703,,,
2018,11,27,18,5,52,436,228.91616821289062,,,
2018,11,27,18,5,52,440,228.99341583251953,,,
2018,11,27,18,5,52,444,229.03060913085938,,,
2018,11,27,18,5,52,448,228.8532257080078,8320.0,88.0,5644.0
2018,11,27,18,5,52,452,228.7445068359375,,,
2018,11,27,18,5,52,456,228.29246520996094,,,
2018,11,27,18,5,52,459,228.20663452148438,,,
2018,11,27,18,5,52,463,228.2123565673828,,,
2018,11,27,18,5,52,467,228.1351089477539,8339.0,9.0,5586.0
2018,11,27,18,5,52,471,227.91481018066406,,,
2018,11,27,18,5,52,475,227.6744842529297,,,
2018,11,27,18,5,52,479,227.3855209350586,,,
2018,11,27,18,5,52,483,227.36263275146484,,,
2018,11,27,18,5,52,487,227.16236114501953,8339.0,88.0,5586.0
2018,11,27,18,5,52,491,226.92203521728516,,,
2018,11,27,18,5,52,495,226.6101837158203,,,
2018,11,27,18,5,52,499,226.5186309814453,,,
2018,11,27,18,5,52,502,226.44710540771484,,,
2018,11,27,18,5,52,506,226.3355255126953,8320.0,88.0,5664.0
2018,11,27,18,5,52,510,226.26686096191406,,,
2018,11,27,18,5,52,514,225.84056854248047,,,
2018,11,27,18,5,52,518,225.51727294921875,,,
2018,11,27,18,5,52,522,225.58879852294922,,,
2018,11,27,18,5,52,526,225.677490234375,8222.0,0.0,5684.0
2018,11,27,18,5,52,530,225.38280487060547,,,
2018,11,27,18,5,52,534,225.21114349365234,,,
2018,11,27,18,5,52,538,224.98798370361328,,,
2018,11,27,18,5,52,541,224.97081756591797,,,
2018,11,27,18,5,52,545,224.9622344970703,8281.0,4294967287.0,5713.0
2018,11,27,18,5,52,549,224.72476959228516,,,
2018,11,27,18,5,52,553,224.5159149169922,,,
2018,11,27,18,5,52,557,224.5960235595703,,,
2018,11,27,18,5,52,561,224.43580627441406,,,
2018,11,27,18,5,52,565,224.35283660888672,8281.0,4294967189.0,5693.0
2018,11,27,18,5,52,569,224.5330810546875,,,
2018,11,27,18,5,52,573,224.3499755859375,,,
2018,11,27,18,5,52,577,224.12967681884766,,,
2018,11,27,18,5,52,581,223.98948669433594,,,
2018,11,27,18,5,52,584,223.92654418945312,8359.0,4294967169.0,5684.0
2018,11,27,18,5,52,588,223.94371032714844,,,
2018,11,27,18,5,52,592,223.88648986816406,,,
2018,11,27,18,5,52,596,223.91223907470703,,,
2018,11,27,18,5,52,600,223.8607406616211,,,
2018,11,27,18,5,52,604,224.12681579589844,8339.0,4294967208.0,5664.0
2018,11,27,18,5,52,608,224.41577911376953,,,
2018,11,27,18,5,52,612,224.23267364501953,,,
2018,11,27,18,5,52,616,224.2298126220703,,,
2018,11,27,18,5,52,620,224.3499755859375,,,
2018,11,27,18,5,52,624,224.58744049072266,8477.0,4294967169.0,5693.0
2018,11,27,18,5,52,627,224.66468811035156,,,
2018,11,27,18,5,52,631,224.75624084472656,,,
2018,11,27,18,5,52,635,224.8220443725586,,,
2018,11,27,18,5,52,639,224.81632232666016,,,
2018,11,27,18,5,52,643,224.96509552001953,8418.0,4294967149.0,5713.0
2018,11,27,18,5,52,647,225.13675689697266,,,
2018,11,27,18,5,52,651,224.65038299560547,,,
2018,11,27,18,5,52,655,224.9164581298828,,,
2018,11,27,18,5,52,659,224.94220733642578,,,
2018,11,27,18,5,52,663,225.04520416259766,8418.0,4294967149.0,5684.0
2018,11,27,18,5,52,666,225.0652313232422,,,
2018,11,27,18,5,52,670,225.09098052978516,,,
2018,11,27,18,5,52,674,224.94220733642578,,,
2018,11,27,18,5,52,678,225.2340316772461,,,
2018,11,27,18,5,52,682,225.3284454345703,8339.0,4294967169.0,5586.0
2018,11,27,18,5,52,686,225.3427505493164,,,
2018,11,27,18,5,52,690,225.40283203125,,,
2018,11,27,18,5,52,694,225.37708282470703,,,
2018,11,27,18,5,52,698,225.40569305419922,,,
2018,11,27,18,5,52,702,225.59738159179688,8457.0,4294967110.0,5625.0
2018,11,27,18,5,52,706,225.73471069335938,,,
2018,11,27,18,5,52,709,225.6145477294922,,,
2018,11,27,18,5,52,713,225.3570556640625,,,
2018,11,27,18,5,52,717,225.43716430664062,,,
2018,11,27,18,5,52,721,225.6002426147461,8516.0,4294967228.0,5693.0
2018,11,27,18,5,52,725,226.0122299194336,,,
2018,11,27,18,5,52,729,226.40419006347656,,,
2018,11,27,18,5,52,733,225.90923309326172,,,
2018,11,27,18,5,52,737,225.40569305419922,,,
2018,11,27,18,5,52,741,225.3713607788086,8418.0,4294967267.0,5625.0
2018,11,27,18,5,52,745,225.52871704101562,,,
2018,11,27,18,5,52,749,225.22258758544922,,,
2018,11,27,18,5,52,752,224.72476959228516,,,
2018,11,27,18,5,52,756,224.29847717285156,,,
2018,11,27,18,5,52,760,224.38430786132812,8339.0,4294967267.0,5684.0
2018,11,27,18,5,52,764,224.3213653564453,,,
2018,11,27,18,5,52,768,224.00665283203125,,,
2018,11,27,18,5,52,772,224.0753173828125,,,
2018,11,27,18,5,52,776,224.0896224975586,,,
2018,11,27,18,5,52,780,224.029541015625,8379.0,4294967247.0,5713.0
2018,11,27,18,5,52,784,223.6490249633789,,,
2018,11,27,18,5,52,788,223.56319427490234,,,
2018,11,27,18,5,52,791,223.11687469482422,,,
2018,11,27,18,5,52,795,222.95665740966797,,,
2018,11,27,18,5,52,799,223.01959991455078,8300.0,4294967149.0,5664.0
2018,11,27,18,5,52,803,223.02818298339844,,,
2018,11,27,18,5,52,807,222.75352478027344,,,
2018,11,27,18,5,52,811,222.70774841308594,,,
2018,11,27,18,5,52,815,222.81646728515625,,,
2018,11,27,18,5,52,819,222.71347045898438,8339.0,4294967208.0,5625.0
2018,11,27,18,5,52,823,222.63050079345703,,,
2018,11,27,18,5,52,827,222.42164611816406,,,
2018,11,27,18,5,52,831,222.42164611816406,,,
2018,11,27,18,5,52,834,222.4874496459961,,,
2018,11,27,18,5,52,838,222.8679656982422,8418.0,4294967091.0,5605.0
2018,11,27,18,5,52,842,223.5574722290039,,,
2018,11,27,18,5,52,846,225.2511978149414,,,
2018,11,27,18,5,52,850,228.06072235107422,,,
2018,11,27,18,5,52,854,231.60552978515625,,,
2018,11,27,18,5,52,858,235.7625961303711,8477.0,4294967208.0,5664.0
2018,11,27,18,5,52,862,240.03982543945312,,,
2018,11,27,18,5,52,866,242.2199249267578,,,
2018,11,27,18,5,52,870,240.71788787841797,,,
2018,11,27,18,5,52,874,234.47227478027344,,,
2018,11,27,18,5,52,877,228.24382781982422,8261.0,0.0,5605.0
2018,11,27,18,5,52,881,224.71904754638672,,,
2018,11,27,18,5,52,885,217.75531768798828,,,
2018,11,27,18,5,52,889,215.72399139404297,,,
2018,11,27,18,5,52,893,217.70095825195312,,,
2018,11,27,18,5,52,897,220.11566162109375,8320.0,4294967287.0,5586.0
2018,11,27,18,5,52,901,222.06974029541016,,,
2018,11,27,18,5,52,905,222.83077239990234,,,
2018,11,27,18,5,52,909,223.06251525878906,,,
2018,11,27,18,5,52,913,223.15406799316406,,,
2018,11,27,18,5,52,916,223.19412231445312,8300.0,4294967228.0,5546.0
2018,11,27,18,5,52,920,223.11973571777344,,,
2018,11,27,18,5,52,924,223.32286834716797,,,
2018,11,27,18,5,52,928,223.62613677978516,,,
2018,11,27,18,5,52,932,223.1740951538086,,,
2018,11,27,18,5,52,936,223.1454849243164,8281.0,127.0,5693.0
2018,11,27,18,5,52,940,223.47450256347656,,,
2018,11,27,18,5,52,944,223.37722778320312,,,
2018,11,27,18,5,52,948,223.78063201904297,,,
2018,11,27,18,5,52,952,223.6032485961914,,,
2018,11,27,18,5,52,956,223.94084930419922,8281.0,127.0,5831.0
2018,11,27,18,5,52,959,224.1382598876953,,,
2018,11,27,18,5,52,963,224.14398193359375,,,
2018,11,27,18,5,52,967,224.5645523071289,,,
2018,11,27,18,5,52,971,224.6532440185547,,,
2018,11,27,18,5,52,975,224.43866729736328,8437.0,4294967130.0,5791.0
2018,11,27,18,5,52,979,224.50733184814453,,,
2018,11,27,18,5,52,983,224.8363494873047,,,
2018,11,27,18,5,52,987,225.02517700195312,,,
2018,11,27,18,5,52,991,225.2197265625,,,
2018,11,27,18,5,52,995,225.18539428710938,8584.0,4294967032.0,5831.0
2018,11,27,18,5,52,999,225.40569305419922,,,
2018,11,27,18,5,53,2,225.6002426147461,,,
2018,11,27,18,5,53,6,225.76618194580078,,,
2018,11,27,18,5,53,10,226.00936889648438,,,
2018,11,27,18,5,53,14,225.94356536865234,8398.0,4294967130.0,5693.0
2018,11,27,18,5,53,18,225.92639923095703,,,
2018,11,27,18,5,53,22,226.10092163085938,,,
2018,11,27,18,5,53,26,226.5157699584961,,,
2018,11,27,18,5,53,30,226.55582427978516,,,
2018,11,27,18,5,53,34,226.70459747314453,8339.0,4294967189.0,5752.0
2018,11,27,18,5,53,38,226.91917419433594,,,
2018,11,27,18,5,53,41,226.95636749267578,,,
2018,11,27,18,5,53,45,227.18238830566406,,,
2018,11,27,18,5,53,49,227.05936431884766,,,
2018,11,27,18,5,53,53,226.8362045288086,8339.0,4294967189.0,5733.0
2018,11,27,18,5,53,57,227.0193099975586,,,
2018,11,27,18,5,53,61,227.04505920410156,,,
2018,11,27,18,5,53,65,227.07653045654297,,,
2018,11,27,18,5,53,69,227.1709442138672,,,
2018,11,27,18,5,53,73,226.95350646972656,8398.0,4294967149.0,5791.0
2018,11,27,18,5,53,77,226.96495056152344,,,
2018,11,27,18,5,53,81,226.96781158447266,,,
2018,11,27,18,5,53,84,226.4270782470703,,,
2018,11,27,18,5,53,88,226.44710540771484,,,
2018,11,27,18,5,53,92,226.21822357177734,8359.0,4294967149.0,5850.0
2018,11,27,18,5,53,96,226.1638641357422,,,
2018,11,27,18,5,53,100,226.05514526367188,,,
2018,11,27,18,5,53,104,225.89492797851562,,,
2018,11,27,18,5,53,108,225.5716323852539,,,
2018,11,27,18,5,53,112,225.2969741821289,8281.0,29.0,5772.0
2018,11,27,18,5,53,116,225.07095336914062,,,
2018,11,27,18,5,53,120,225.0652313232422,,,
2018,11,27,18,5,53,124,224.9908447265625,,,
2018,11,27,18,5,53,127,224.761962890625,,,
2018,11,27,18,5,53,131,224.77340698242188,8134.0,4294967247.0,5752.0
2018,11,27,18,5,53,135,224.4586944580078,,,
2018,11,27,18,5,53,139,224.43008422851562,,,
2018,11,27,18,5,53,143,224.19261932373047,,,
2018,11,27,18,5,53,147,224.0610122680664,,,
2018,11,27,18,5,53,151,224.12967681884766,8379.0,4294967169.0,5752.0
2018,11,27,18,5,53,155,223.84071350097656,,,
2018,11,27,18,5,53,159,223.76632690429688,,,
2018,11,27,18,5,53,163,224.1039276123047,,,
2018,11,27,18,5,53,166,223.5574722290039,,,
2018,11,27,18,5,53,170,223.6804962158203,8359.0,4294967287.0,5684.0
2018,11,27,18,5,53,174,223.07109832763672,,,
2018,11,27,18,5,53,178,223.56319427490234,,,
2018,11,27,18,5,53,182,223.42586517333984,,,
2018,11,27,18,5,53,186,223.26278686523438,,,
2018,11,27,18,5,53,190,222.7792739868164,8398.0,4294967228.0,5772.0
2018,11,27,18,5,53,194,223.36864471435547,,,
2018,11,27,18,5,53,198,223.50597381591797,,,
2018,11,27,18,5,53,202,223.31714630126953,,,
2018,11,27,18,5,53,206,223.48880767822266,,,
2018,11,27,18,5,53,209,223.05679321289062,8418.0,4294967189.0,5811.0
2018,11,27,18,5,53,213,222.8994369506836,,,
2018,11,27,18,5,53,217,223.4487533569336,,,
2018,11,27,18,5,53,221,223.71768951416016,,,
2018,11,27,18,5,53,225,223.62899780273438,,,
2018,11,27,18,5,53,229,223.58036041259766,8359.0,4294967247.0,5791.0
2018,11,27,18,5,53,233,223.01101684570312,,,
2018,11,27,18,5,53,237,223.16837310791016,,,
2018,11,27,18,5,53,241,223.48594665527344,,,
2018,11,27,18,5,53,245,223.56891632080078,,,
2018,11,27,18,5,53,249,224.00379180908203,8202.0,4294967228.0,5791.0
2018,11,27,18,5,53,252,223.50025177001953,,,
2018,11,27,18,5,53,256,223.6032485961914,,,
2018,11,27,18,5,53,260,223.6919403076172,,,
2018,11,27,18,5,53,264,223.9093780517578,,,
2018,11,27,18,5,53,268,223.91223907470703,8202.0,4294967208.0,5684.0
2018,11,27,18,5,53,272,223.71768951416016,,,
2018,11,27,18,5,53,276,223.93512725830078,,,
2018,11,27,18,5,53,280,223.6175537109375,,,
2018,11,27,18,5,53,284,223.4945297241211,,,
2018,11,27,18,5,53,288,224.0753173828125,8359.0,4294967169.0,5733.0
2018,11,27,18,5,53,291,224.1525650024414,,,
2018,11,27,18,5,53,295,223.71196746826172,,,
2018,11,27,18,5,53,299,223.7262725830078,,,
2018,11,27,18,5,53,303,223.76632690429688,,,
2018,11,27,18,5,53,307,223.8779067993164,8339.0,4294967267.0,5713.0
2018,11,27,18,5,53,311,223.7863540649414,,,
2018,11,27,18,5,53,315,223.38008880615234,,,
2018,11,27,18,5,53,319,223.31714630126953,,,
2018,11,27,18,5,53,323,223.5860824584961,,,
2018,11,27,18,5,53,327,223.70338439941406,,,
2018,11,27,18,5,53,331,223.6003875732422,,,
2018,11,27,18,5,53,334,223.20270538330078,,,
2018,11,27,18,5,53,338,223.4630584716797,,,
2018,11,27,18,5,53,342,223.480224609375,,,
2018,11,27,18,5,53,346,223.76060485839844,5772.0,8300.0,4294967287.0
2018,11,27,18,5,53,350,223.78063201904297,,,
2018,11,27,18,5,53,354,223.46878051757812,,,
2018,11,27,18,5,53,358,223.39153289794922,,,
2018,11,27,18,5,53,362,223.71768951416016,,,
2018,11,27,18,5,53,366,223.92940521240234,5752.0,8163.0,4294967247.0
2018,11,27,18,5,53,370,223.4659194946289,,,
2018,11,27,18,5,53,374,223.24275970458984,,,
2018,11,27,18,5,53,377,223.51455688476562,,,
2018,11,27,18,5,53,381,223.34003448486328,,,
2018,11,27,18,5,53,385,223.65188598632812,5752.0,8241.0,9.0
2018,11,27,18,5,53,389,223.6175537109375,,,
2018,11,27,18,5,53,393,223.2341766357422,,,
2018,11,27,18,5,53,397,222.9938507080078,,,
2018,11,27,18,5,53,401,223.24562072753906,,,
2018,11,27,18,5,53,405,223.56319427490234,5733.0,8379.0,4294967110.0
2018,11,27,18,5,53,409,223.33717346191406,,,
2018,11,27,18,5,53,413,223.78063201904297,,,
2018,11,27,18,5,53,416,223.39153289794922,,,
2018,11,27,18,5,53,420,223.11115264892578,,,
2018,11,27,18,5,53,424,223.29139709472656,5693.0,8359.0,4294967247.0
2018,11,27,18,5,53,428,223.4973907470703,,,
2018,11,27,18,5,53,432,223.42586517333984,,,
2018,11,27,18,5,53,436,223.7720489501953,,,
2018,11,27,18,5,53,440,223.73485565185547,,,
2018,11,27,18,5,53,444,223.5260009765625,5684.0,8281.0,4294967228.0
2018,11,27,18,5,53,448,223.5574722290039,,,
2018,11,27,18,5,53,452,223.33431243896484,,,
2018,11,27,18,5,53,456,223.09112548828125,,,
2018,11,27,18,5,53,459,223.3285903930664,,,
2018,11,27,18,5,53,463,223.73199462890625,5791.0,8339.0,4294967228.0
2018,11,27,18,5,53,467,223.76060485839844,,,
2018,11,27,18,5,53,471,223.95801544189453,,,
2018,11,27,18,5,53,475,223.79207611083984,,,
2018,11,27,18,5,53,479,223.5889434814453,,,
2018,11,27,18,5,53,483,223.97232055664062,5733.0,8222.0,4294967247.0
2018,11,27,18,5,53,487,224.2584228515625,,,
2018,11,27,18,5,53,491,224.3185043334961,,,
2018,11,27,18,5,53,495,224.29561614990234,,,
2018,11,27,18,5,53,499,224.40719604492188,,,
2018,11,27,18,5,53,502,225.01659393310547,5693.0,8114.0,0.0
2018,11,27,18,5,53,506,224.6532440185547,,,
2018,11,27,18,5,53,510,224.4558334350586,,,
2018,11,27,18,5,53,514,224.10964965820312,,,
2018,11,27,18,5,53,518,224.1353988647461,,,
2018,11,27,18,5,53,522,224.0438461303711,5684.0,8300.0,4294967208.0
2018,11,27,18,5,53,526,224.07817840576172,,,
2018,11,27,18,5,53,530,223.54602813720703,,,
2018,11,27,18,5,53,534,223.59180450439453,,,
2018,11,27,18,5,53,538,223.41442108154297,,,
2018,11,27,18,5,53,541,223.67191314697266,5409.0,8300.0,4294966895.0
2018,11,27,18,5,53,545,223.38294982910156,,,
2018,11,27,18,5,53,549,223.46019744873047,,,
2018,11,27,18,5,53,553,223.35433959960938,,,
2018,11,27,18,5,53,557,223.20842742919922,,,
2018,11,27,18,5,53,561,223.40869903564453,5203.0,7712.0,4294967051.0
2018,11,27,18,5,53,565,223.5574722290039,,,
2018,11,27,18,5,53,569,223.47450256347656,,,
2018,11,27,18,5,53,573,223.44589233398438,,,
2018,11,27,18,5,53,577,223.52313995361328,,,
2018,11,27,18,5,53,581,223.663330078125,5262.0,7516.0,4294967012.0
2018,11,27,18,5,53,584,223.8006591796875,,,
2018,11,27,18,5,53,588,223.9236831665039,,,
2018,11,27,18,5,53,592,223.93226623535156,,,
2018,11,27,18,5,53,596,223.9522933959961,,,
2018,11,27,18,5,53,600,224.12967681884766,5586.0,8134.0,4294966914.0
2018,11,27,18,5,53,604,224.29847717285156,,,
2018,11,27,18,5,53,608,224.60174560546875,,,
2018,11,27,18,5,53,612,225.73471069335938,,,
2018,11,27,18,5,53,616,227.71167755126953,,,
2018,11,27,18,5,53,620,230.96466064453125,5909.0,8477.0,4294966708.0
2018,11,27,18,5,53,624,234.80701446533203,,,
2018,11,27,18,5,53,627,238.47198486328125,,,
2018,11,27,18,5,53,631,242.15412139892578,,,
2018,11,27,18,5,53,635,241.8966293334961,,,
2018,11,27,18,5,53,639,238.4662628173828,6007.0,8016.0,9.0
2018,11,27,18,5,53,643,232.4666976928711,,,
2018,11,27,18,5,53,647,226.87053680419922,,,
2018,11,27,18,5,53,651,222.8565216064453,,,
2018,11,27,18,5,53,655,217.90122985839844,,,
2018,11,27,18,5,53,659,218.1529998779297,6046.0,8143.0,4294967208.0
2018,11,27,18,5,53,663,220.0183868408203,,,
2018,11,27,18,5,53,666,222.98240661621094,,,
2018,11,27,18,5,53,670,224.5159149169922,,,
2018,11,27,18,5,53,674,225.6488800048828,,,
2018,11,27,18,5,53,678,226.06658935546875,6134.0,8516.0,4294966895.0
2018,11,27,18,5,53,682,226.44424438476562,,,
2018,11,27,18,5,53,686,226.7131805419922,,,
2018,11,27,18,5,53,690,226.5758514404297,,,
2018,11,27,18,5,53,694,226.4699935913086,,,
2018,11,27,18,5,53,698,226.55296325683594,6154.0,8859.0,4294966934.0
2018,11,27,18,5,53,702,226.64451599121094,,,
2018,11,27,18,5,53,706,226.59587860107422,,,
2018,11,27,18,5,53,709,226.42993927001953,,,
2018,11,27,18,5,53,713,226.3469696044922,,,
2018,11,27,18,5,53,717,226.39846801757812,6066.0,8702.0,4294967032.0
2018,11,27,18,5,53,721,226.40132904052734,,,
2018,11,27,18,5,53,725,226.37557983398438,,,
2018,11,27,18,5,53,729,226.35841369628906,,,
2018,11,27,18,5,53,733,225.94070434570312,,,
2018,11,27,18,5,53,737,225.7547378540039,5987.0,8741.0,4294966826.0
2018,11,27,18,5,53,741,225.95500946044922,,,
2018,11,27,18,5,53,745,226.00078582763672,,,
2018,11,27,18,5,53,749,226.15528106689453,,,
2018,11,27,18,5,53,752,225.95787048339844,,,
2018,11,27,18,5,53,756,225.91495513916016,5889.0,8418.0,4294966728.0
2018,11,27,18,5,53,760,226.11522674560547,,,
2018,11,27,18,5,53,764,226.2868881225586,,,
2018,11,27,18,5,53,768,226.31549835205078,,,
2018,11,27,18,5,53,772,226.26399993896484,,,
2018,11,27,18,5,53,776,226.18389129638672,5850.0,8075.0,4294966895.0
2018,11,27,18,5,53,780,226.36127471923828,,,
2018,11,27,18,5,53,784,226.58443450927734,,,
2018,11,27,18,5,53,788,226.82476043701172,,,
2018,11,27,18,5,53,791,226.8047332763672,,,
2018,11,27,18,5,53,795,226.6988754272461,5752.0,7879.0,4294967032.0
2018,11,27,18,5,53,799,226.9277572631836,,,
2018,11,27,18,5,53,803,227.39696502685547,,,
2018,11,27,18,5,53,807,227.54859924316406,,,
2018,11,27,18,5,53,811,227.6287078857422,,,
2018,11,27,18,5,53,815,227.64301300048828,5684.0,7879.0,4294967071.0
2018,11,27,18,5,53,819,227.85472869873047,,,
2018,11,27,18,5,53,823,228.01494598388672,,,
2018,11,27,18,5,53,827,228.06930541992188,,,
2018,11,27,18,5,53,831,228.10649871826172,,,
2018,11,27,18,5,53,834,228.17230224609375,5772.0,7996.0,4294966993.0
2018,11,27,18,5,53,838,228.1808853149414,,,
2018,11,27,18,5,53,842,228.0864715576172,,,
2018,11,27,18,5,53,846,227.92911529541016,,,
2018,11,27,18,5,53,850,227.88333892822266,,,
2018,11,27,18,5,53,854,227.6315689086914,5929.0,8163.0,4294966885.0
2018,11,27,18,5,53,858,227.43988037109375,,,
2018,11,27,18,5,53,862,227.77175903320312,,,
2018,11,27,18,5,53,866,227.65731811523438,,,
2018,11,27,18,5,53,870,227.16808319091797,,,
2018,11,27,18,5,53,874,226.90200805664062,6046.0,8320.0,4294967110.0
2018,11,27,18,5,53,877,226.61876678466797,,,
2018,11,27,18,5,53,881,226.52149200439453,,,
2018,11,27,18,5,53,885,226.44996643066406,,,
2018,11,27,18,5,53,889,226.22108459472656,,,
2018,11,27,18,5,53,893,226.15814208984375,6046.0,8261.0,4294966826.0
2018,11,27,18,5,53,897,225.90065002441406,,,
2018,11,27,18,5,53,901,225.83770751953125,,,
2018,11,27,18,5,53,905,225.5716323852539,,,
2018,11,27,18,5,53,909,225.58307647705078,,,
2018,11,27,18,5,53,913,225.34561157226562,6154.0,8379.0,4294966895.0
2018,11,27,18,5,53,916,225.2340316772461,,,
2018,11,27,18,5,53,920,225.13961791992188,,,
2018,11,27,18,5,53,924,225.07095336914062,,,
2018,11,27,18,5,53,928,224.8249053955078,,,
2018,11,27,18,5,53,932,224.8821258544922,6134.0,8300.0,4294966934.0
2018,11,27,18,5,53,936,224.81060028076172,,,
2018,11,27,18,5,53,940,224.761962890625,,,
2018,11,27,18,5,53,944,224.90501403808594,,,
2018,11,27,18,5,53,948,224.93934631347656,,,
2018,11,27,18,5,53,952,224.93934631347656,6046.0,8320.0,4294966914.0
2018,11,27,18,5,53,956,225.0194549560547,,,
2018,11,27,18,5,53,959,225.03948211669922,,,
2018,11,27,18,5,53,963,225.09384155273438,,,
2018,11,27,18,5,53,967,225.13961791992188,,,
2018,11,27,18,5,53,971,225.1567840576172,6085.0,8202.0,4294966973.0
2018,11,27,18,5,53,975,225.1424789428711,,,
2018,11,27,18,5,53,979,225.18539428710938,,,
2018,11,27,18,5,53,983,225.4314422607422,,,
2018,11,27,18,5,53,987,225.5859375,,,
2018,11,27,18,5,53,991,225.33130645751953,5987.0,8163.0,4294966973.0
2018,11,27,18,5,53,995,225.5086898803711,,,
2018,11,27,18,5,53,999,225.71468353271484,,,
2018,11,27,18,5,54,2,225.9378433227539,,,
2018,11,27,18,5,54,6,225.91209411621094,,,
2018,11,27,18,5,54,10,225.91209411621094,5968.0,8094.0,4294966993.0
2018,11,27,18,5,54,14,225.81195831298828,,,
2018,11,27,18,5,54,18,225.86345672607422,,,
2018,11,27,18,5,54,22,225.96359252929688,,,
2018,11,27,18,5,54,26,225.8319854736328,,,
2018,11,27,18,5,54,30,225.85773468017578,5987.0,8036.0,4294966953.0
2018,11,27,18,5,54,34,225.8920669555664,,,
2018,11,27,18,5,54,38,225.90923309326172,,,
2018,11,27,18,5,54,41,225.8749008178711,,,
2018,11,27,18,5,54,45,225.9206771850586,,,
2018,11,27,18,5,54,49,225.8319854736328,5987.0,8114.0,4294966885.0
2018,11,27,18,5,54,53,225.86345672607422,,,
2018,11,27,18,5,54,57,225.48866271972656,,,
2018,11,27,18,5,54,61,225.48580169677734,,,
2018,11,27,18,5,54,65,225.53730010986328,,,
2018,11,27,18,5,54,69,225.52013397216797,6046.0,8134.0,4294966953.0
2018,11,27,18,5,54,73,225.39710998535156,,,
2018,11,27,18,5,54,77,225.39424896240234,,,
2018,11,27,18,5,54,81,225.46005249023438,,,
2018,11,27,18,5,54,84,225.35991668701172,,,
2018,11,27,18,5,54,88,225.39138793945312,6066.0,8163.0,4294966934.0
2018,11,27,18,5,54,92,225.35419464111328,,,
2018,11,27,18,5,54,96,225.32272338867188,,,
2018,11,27,18,5,54,100,225.30841827392578,,,
2018,11,27,18,5,54,104,225.35991668701172,,,
2018,11,27,18,5,54,108,225.27408599853516,6115.0,8183.0,4294966914.0
2018,11,27,18,5,54,112,225.15106201171875,,,
2018,11,27,18,5,54,116,225.07667541503906,,,
2018,11,27,18,5,54,120,224.5187759399414,,,
2018,11,27,18,5,54,124,224.6847152709961,,,
2018,11,27,18,5,54,127,224.83348846435547,6134.0,8241.0,4294966953.0
2018,11,27,18,5,54,131,224.7304916381836,,,
2018,11,27,18,5,54,135,224.67041015625,,,
2018,11,27,18,5,54,139,224.72763061523438,,,
2018,11,27,18,5,54,143,224.68185424804688,,,
2018,11,27,18,5,54,147,224.6875762939453,6105.0,8241.0,4294966885.0
2018,11,27,18,5,54,151,224.64466094970703,,,
2018,11,27,18,5,54,155,224.5502471923828,,,
2018,11,27,18,5,54,159,224.37000274658203,,,
2018,11,27,18,5,54,163,224.52735900878906,,,
2018,11,27,18,5,54,166,224.4729995727539,6046.0,8241.0,4294966953.0
2018,11,27,18,5,54,170,224.395751953125,,,
2018,11,27,18,5,54,174,224.2870330810547,,,
2018,11,27,18,5,54,178,224.29561614990234,,,
2018,11,27,18,5,54,182,224.11251068115234,,,
2018,11,27,18,5,54,186,224.18975830078125,6046.0,8222.0,4294966914.0
2018,11,27,18,5,54,190,224.15542602539062,,,
2018,11,27,18,5,54,194,224.14112091064453,,,
2018,11,27,18,5,54,198,224.11251068115234,,,
2018,11,27,18,5,54,202,224.29275512695312,,,
2018,11,27,18,5,54,206,224.3785858154297,5968.0,8094.0,4294966973.0
2018,11,27,18,5,54,209,224.35855865478516,,,
2018,11,27,18,5,54,213,224.37286376953125,,,
2018,11,27,18,5,54,217,224.5645523071289,,,
2018,11,27,18,5,54,221,224.71904754638672,,,
2018,11,27,18,5,54,225,224.76482391357422,6027.0,8075.0,4294966993.0
2018,11,27,18,5,54,229,224.81632232666016,,,
2018,11,27,18,5,54,233,224.761962890625,,,
2018,11,27,18,5,54,237,224.71904754638672,,,
2018,11,27,18,5,54,241,224.95079040527344,,,
2018,11,27,18,5,54,245,225.21400451660156,6007.0,8094.0,4294966953.0
2018,11,27,18,5,54,249,225.0080108642578,,,
2018,11,27,18,5,54,252,225.0080108642578,,,
2018,11,27,18,5,54,256,224.94220733642578,,,
2018,11,27,18,5,54,260,224.9593734741211,,,
2018,11,27,18,5,54,264,224.9307632446289,5948.0,8114.0,4294967012.0
2018,11,27,18,5,54,268,224.9593734741211,,,
2018,11,27,18,5,54,272,225.04806518554688,,,
2018,11,27,18,5,54,276,225.04520416259766,,,
2018,11,27,18,5,54,280,225.07953643798828,,,
2018,11,27,18,5,54,284,225.2025604248047,6007.0,8143.0,4294967032.0
2018,11,27,18,5,54,288,225.19683837890625,,,
2018,11,27,18,5,54,291,225.10528564453125,,,
2018,11,27,18,5,54,295,225.03662109375,,,
2018,11,27,18,5,54,299,225.2340316772461,,,
2018,11,27,18,5,54,303,225.31414031982422,6105.0,8134.0,4294966885.0
2018,11,27,18,5,54,307,225.0680923461914,,,
2018,11,27,18,5,54,311,224.8992919921875,,,
2018,11,27,18,5,54,315,224.95651245117188,,,
2018,11,27,18,5,54,319,225.21686553955078,,,
2018,11,27,18,5,54,323,225.22258758544922,,,
2018,11,27,18,5,54,327,225.33130645751953,,,
2018,11,27,18,5,54,331,225.19969940185547,,,
2018,11,27,18,5,54,334,225.1453399658203,,,
2018,11,27,18,5,54,338,225.2826690673828,,,
2018,11,27,18,5,54,342,225.68607330322266,5948.0,8143.0,4294966973.0
2018,11,27,18,5,54,346,226.28116607666016,,,
2018,11,27,18,5,54,350,226.1810302734375,,,
2018,11,27,18,5,54,354,225.8749008178711,,,
2018,11,27,18,5,54,358,225.7089614868164,,,
2018,11,27,18,5,54,362,225.78048706054688,6027.0,8261.0,4294966934.0
2018,11,27,18,5,54,366,225.49152374267578,,,
2018,11,27,18,5,54,370,225.48580169677734,,,
2018,11,27,18,5,54,374,225.47435760498047,,,
2018,11,27,18,5,54,377,225.89492797851562,,,
2018,11,27,18,5,54,381,225.8749008178711,6105.0,8202.0,4294966953.0
2018,11,27,18,5,54,385,225.59738159179688,,,
2018,11,27,18,5,54,389,225.23975372314453,,,
2018,11,27,18,5,54,393,224.97081756591797,,,
2018,11,27,18,5,54,397,225.01659393310547,,,
2018,11,27,18,5,54,401,225.0223159790039,6007.0,8261.0,4294966953.0
2018,11,27,18,5,54,405,224.9765396118164,,,
2018,11,27,18,5,54,409,225.06237030029297,,,
2018,11,27,18,5,54,413,224.90787506103516,,,
2018,11,27,18,5,54,416,224.62749481201172,,,
2018,11,27,18,5,54,420,224.6875762939453,6007.0,8261.0,4294967091.0
2018,11,27,18,5,54,424,224.47872161865234,,,
2018,11,27,18,5,54,428,224.37286376953125,,,
2018,11,27,18,5,54,432,224.17259216308594,,,
2018,11,27,18,5,54,436,224.11537170410156,,,
2018,11,27,18,5,54,440,224.07817840576172,5987.0,8134.0,4294966934.0
2018,11,27,18,5,54,444,224.00951385498047,,,
2018,11,27,18,5,54,448,223.92940521240234,,,
2018,11,27,18,5,54,452,223.73485565185547,,,
2018,11,27,18,5,54,456,224.30133819580078,,,
2018,11,27,18,5,54,459,226.09519958496094,5987.0,8183.0,4294967012.0
2018,11,27,18,5,54,463,228.93905639648438,,,
2018,11,27,18,5,54,467,232.62405395507812,,,
2018,11,27,18,5,54,471,236.49215698242188,,,
2018,11,27,18,5,54,475,240.63777923583984,,,
2018,11,27,18,5,54,479,245.67890167236328,6066.0,8036.0,4294967032.0
2018,11,27,18,5,54,483,247.3897933959961,,,
2018,11,27,18,5,54,487,242.57755279541016,,,
2018,11,27,18,5,54,491,234.82704162597656,,,
2018,11,27,18,5,54,495,229.28810119628906,,,
2018,11,27,18,5,54,499,222.83649444580078,5948.0,7938.0,4294967149.0
2018,11,27,18,5,54,502,217.5922393798828,,,
2018,11,27,18,5,54,506,219.2859649658203,,,
2018,11,27,18,5,54,510,221.649169921875,,,
2018,11,27,18,5,54,514,223.2198715209961,,,
2018,11,27,18,5,54,518,223.2656478881836,6007.0,8163.0,4294966895.0
2018,11,27,18,5,54,522,222.89371490478516,,,
2018,11,27,18,5,54,526,222.65052795410156,,,
2018,11,27,18,5,54,530,222.33867645263672,,,
2018,11,27,18,5,54,534,221.96102142333984,,,
2018,11,27,18,5,54,538,221.84085845947266,6085.0,8261.0,4294967169.0
2018,11,27,18,5,54,541,221.73500061035156,,,
2018,11,27,18,5,54,545,221.73500061035156,,,
2018,11,27,18,5,54,549,221.62628173828125,,,
2018,11,27,18,5,54,553,221.57764434814453,,,
2018,11,27,18,5,54,557,221.6348648071289,5968.0,8114.0,4294967110.0
2018,11,27,18,5,54,561,221.65203094482422,,,
2018,11,27,18,5,54,565,221.66919708251953,,,
2018,11,27,18,5,54,569,221.82655334472656,,,
2018,11,27,18,5,54,573,221.9066619873047,,,
2018,11,27,18,5,54,577,221.9839096069336,5929.0,8222.0,4294967091.0
2018,11,27,18,5,54,581,222.16415405273438,,,
2018,11,27,18,5,54,584,222.25570678710938,,,
2018,11,27,18,5,54,588,222.42164611816406,,,
2018,11,27,18,5,54,592,222.47600555419922,,,
2018,11,27,18,5,54,596,222.46170043945312,6027.0,8222.0,4294967032.0
2018,11,27,18,5,54,600,222.75352478027344,,,
2018,11,27,18,5,54,604,223.0081558227539,,,
2018,11,27,18,5,54,608,223.13404083251953,,,
2018,11,27,18,5,54,612,223.24848175048828,,,
2018,11,27,18,5,54,616,223.50025177001953,6105.0,8134.0,4294967110.0
2018,11,27,18,5,54,620,223.66619110107422,,,
2018,11,27,18,5,54,624,223.93512725830078,,,
2018,11,27,18,5,54,627,223.84357452392578,,,
2018,11,27,18,5,54,631,223.55175018310547,,,
2018,11,27,18,5,54,635,223.90365600585938,6134.0,8055.0,4294966993.0
2018,11,27,18,5,54,639,224.17545318603516,,,
2018,11,27,18,5,54,643,224.55596923828125,,,
2018,11,27,18,5,54,647,224.83348846435547,,,
2018,11,27,18,5,54,651,224.99942779541016,,,
2018,11,27,18,5,54,655,225.07095336914062,6046.0,8114.0,4294967032.0
2018,11,27,18,5,54,659,225.47435760498047,,,
2018,11,27,18,5,54,663,225.6946563720703,,,
2018,11,27,18,5,54,666,225.9521484375,,,
2018,11,27,18,5,54,670,226.12953186035156,,,
2018,11,27,18,5,54,674,226.17530822753906,6027.0,8143.0,4294966973.0
2018,11,27,18,5,54,678,226.22108459472656,,,
2018,11,27,18,5,54,682,226.37271881103516,,,
2018,11,27,18,5,54,686,226.54151916503906,,,
2018,11,27,18,5,54,690,226.44710540771484,,,
2018,11,27,18,5,54,694,226.2725830078125,6007.0,8094.0,4294967169.0
2018,11,27,18,5,54,698,226.03797912597656,,,
2018,11,27,18,5,54,702,226.11236572265625,,,
2018,11,27,18,5,54,706,226.043701171875,,,
2018,11,27,18,5,54,709,225.88634490966797,,,
2018,11,27,18,5,54,713,225.78048706054688,5968.0,8183.0,4294967091.0
2018,11,27,18,5,54,717,225.61168670654297,,,
2018,11,27,18,5,54,721,225.4800796508789,,,
2018,11,27,18,5,54,725,225.31700134277344,,,
2018,11,27,18,5,54,729,225.12245178222656,,,
2018,11,27,18,5,54,733,224.8363494873047,5968.0,8163.0,49.0
2018,11,27,18,5,54,737,224.55310821533203,,,
2018,11,27,18,5,54,741,224.5960235595703,,,
2018,11,27,18,5,54,745,224.37286376953125,,,
2018,11,27,18,5,54,749,224.24983978271484,,,
2018,11,27,18,5,54,752,223.8750457763672,5987.0,8114.0,4294967032.0
2018,11,27,18,5,54,756,223.56319427490234,,,
2018,11,27,18,5,54,760,223.74916076660156,,,
2018,11,27,18,5,54,764,223.59466552734375,,,
2018,11,27,18,5,54,768,223.43730926513672,,,
2018,11,27,18,5,54,772,223.06251525878906,5987.0,8143.0,4294967130.0
2018,11,27,18,5,54,776,222.87940979003906,,,
2018,11,27,18,5,54,780,222.72205352783203,,,
2018,11,27,18,5,54,784,222.78213500976562,,,
2018,11,27,18,5,54,788,222.63336181640625,,,
2018,11,27,18,5,54,791,222.50747680664062,6027.0,8163.0,4294967149.0
2018,11,27,18,5,54,795,222.48172760009766,,,
2018,11,27,18,5,54,799,222.5360870361328,,,
2018,11,27,18,5,54,803,222.51033782958984,,,
2018,11,27,18,5,54,807,222.5046157836914,,,
2018,11,27,18,5,54,811,222.57041931152344,5929.0,8163.0,4294967169.0
2018,11,27,18,5,54,815,222.4273681640625,,,
2018,11,27,18,5,54,819,222.70774841308594,,,
2018,11,27,18,5,54,823,223.3257293701172,,,
2018,11,27,18,5,54,827,223.2656478881836,,,
2018,11,27,18,5,54,831,223.20842742919922,5987.0,8241.0,4294967110.0
2018,11,27,18,5,54,834,223.11973571777344,,,
2018,11,27,18,5,54,838,223.1884002685547,,,
2018,11,27,18,5,54,842,223.27709197998047,,,
2018,11,27,18,5,54,846,223.39439392089844,,,
2018,11,27,18,5,54,850,223.3572006225586,5968.0,8183.0,4294967051.0
2018,11,27,18,5,54,854,223.4630584716797,,,
2018,11,27,18,5,54,858,223.46019744873047,,,
2018,11,27,18,5,54,862,223.62041473388672,,,
2018,11,27,18,5,54,866,223.480224609375,,,
2018,11,27,18,5,54,870,223.59752655029297,6046.0,8114.0,4294967071.0
2018,11,27,18,5,54,874,223.54602813720703,,,
2018,11,27,18,5,54,877,223.53172302246094,,,
2018,11,27,18,5,54,881,223.60610961914062,,,
2018,11,27,18,5,54,885,223.95801544189453,,,
2018,11,27,18,5,54,889,224.17259216308594,6134.0,8055.0,4294967012.0
2018,11,27,18,5,54,893,224.02667999267578,,,
2018,11,27,18,5,54,897,223.8779067993164,,,
2018,11,27,18,5,54,901,223.79779815673828,,,
2018,11,27,18,5,54,905,223.82354736328125,,,
2018,11,27,18,5,54,909,223.86646270751953,6085.0,8075.0,4294967032.0
2018,11,27,18,5,54,913,223.6919403076172,,,
2018,11,27,18,5,54,916,223.7834930419922,,,
2018,11,27,18,5,54,920,223.75774383544922,,,
2018,11,27,18,5,54,924,223.57749938964844,,,
2018,11,27,18,5,54,928,223.48594665527344,6066.0,8202.0,4294967110.0
2018,11,27,18,5,54,932,223.32286834716797,,,
2018,11,27,18,5,54,936,223.21701049804688,,,
2018,11,27,18,5,54,940,223.30856323242188,,,
2018,11,27,18,5,54,944,223.34575653076172,,,
2018,11,27,18,5,54,948,223.20270538330078,6027.0,8163.0,4294967130.0
2018,11,27,18,5,54,952,222.87368774414062,,,
2018,11,27,18,5,54,956,222.74494171142578,,,
2018,11,27,18,5,54,959,222.81646728515625,,,
2018,11,27,18,5,54,963,222.8851318359375,,,
2018,11,27,18,5,54,967,222.8994369506836,5968.0,8163.0,4294967228.0
2018,11,27,18,5,54,971,222.79071807861328,,,
2018,11,27,18,5,54,975,222.6104736328125,,,
2018,11,27,18,5,54,979,222.61619567871094,,,
2018,11,27,18,5,54,983,222.60761260986328,,,
2018,11,27,18,5,54,987,222.5046157836914,6027.0,8163.0,4294967091.0
2018,11,27,18,5,54,991,222.52178192138672,,,
2018,11,27,18,5,54,995,222.42450714111328,,,
2018,11,27,18,5,54,999,222.36156463623047,,,
2018,11,27,18,5,55,2,222.31578826904297,,,
2018,11,27,18,5,55,6,222.28145599365234,6007.0,8094.0,4294967071.0
2018,11,27,18,5,55,10,222.1813201904297,,,
2018,11,27,18,5,55,14,222.06974029541016,,,
2018,11,27,18,5,55,18,221.9696044921875,,,
2018,11,27,18,5,55,22,221.94385528564453,,,
2018,11,27,18,5,55,26,221.87232971191406,6007.0,8114.0,4294967051.0
2018,11,27,18,5,55,30,221.8179702758789,,,
2018,11,27,18,5,55,34,221.65489196777344,,,
2018,11,27,18,5,55,38,221.64630889892578,,,
2018,11,27,18,5,55,41,221.68350219726562,,,
2018,11,27,18,5,55,45,221.71497344970703,6027.0,8114.0,4294967149.0
2018,11,27,18,5,55,49,221.56047821044922,,,
2018,11,27,18,5,55,53,221.4832305908203,,,
2018,11,27,18,5,55,57,221.47464752197266,,,
2018,11,27,18,5,55,61,221.65203094482422,,,
2018,11,27,18,5,55,65,221.68350219726562,6066.0,8143.0,4294967110.0
2018,11,27,18,5,55,69,221.6806411743164,,,
2018,11,27,18,5,55,73,221.62628173828125,,,
2018,11,27,18,5,55,77,221.69208526611328,,,
2018,11,27,18,5,55,81,222.12982177734375,,,
2018,11,27,18,5,55,84,222.16129302978516,6046.0,8075.0,4294967110.0
2018,11,27,18,5,55,88,222.0468521118164,,,
2018,11,27,18,5,55,92,221.80938720703125,,,
2018,11,27,18,5,55,96,221.78077697753906,,,
2018,11,27,18,5,55,100,221.90093994140625,,,
2018,11,27,18,5,55,104,221.73500061035156,5987.0,8134.0,4294967208.0
2018,11,27,18,5,55,108,221.74358367919922,,,
2018,11,27,18,5,55,112,221.60911560058594,,,
2018,11,27,18,5,55,116,221.65489196777344,,,
2018,11,27,18,5,55,120,221.6777801513672,,,
2018,11,27,18,5,55,124,221.6634750366211,6027.0,8075.0,4294967110.0
2018,11,27,18,5,55,127,221.67205810546875,,,
2018,11,27,18,5,55,131,221.56333923339844,,,
2018,11,27,18,5,55,135,221.37737274169922,,,
2018,11,27,18,5,55,139,221.36306762695312,,,
2018,11,27,18,5,55,143,221.1627960205078,5987.0,8143.0,4294967130.0
2018,11,27,18,5,55,147,221.3430404663086,,,
2018,11,27,18,5,55,151,221.06266021728516,,,
2018,11,27,18,5,55,155,221.09127044677734,,,
2018,11,27,18,5,55,159,221.06266021728516,,,
2018,11,27,18,5,55,163,221.18282318115234,5987.0,8183.0,4294967071.0
2018,11,27,18,5,55,166,221.1170196533203,,,
2018,11,27,18,5,55,170,221.0254669189453,,,
2018,11,27,18,5,55,174,220.95394134521484,,,
2018,11,27,18,5,55,178,221.09127044677734,,,
2018,11,27,18,5,55,182,221.13704681396484,6027.0,8143.0,4294967169.0
2018,11,27,18,5,55,186,221.2657928466797,,,
2018,11,27,18,5,55,190,221.13418579101562,,,
2018,11,27,18,5,55,194,221.1771011352539,,,
2018,11,27,18,5,55,198,221.10557556152344,,,
2018,11,27,18,5,55,202,221.30584716796875,5987.0,8183.0,4294967208.0
2018,11,27,18,5,55,206,221.90093994140625,,,
2018,11,27,18,5,55,209,222.03540802001953,,,
2018,11,27,18,5,55,213,221.8465805053711,,,
2018,11,27,18,5,55,217,221.60625457763672,,,
2018,11,27,18,5,55,221,221.38595581054688,6027.0,8183.0,4294967149.0
2018,11,27,18,5,55,225,221.32587432861328,,,
2018,11,27,18,5,55,229,220.97110748291016,,,
2018,11,27,18,5,55,233,220.8108901977539,,,
2018,11,27,18,5,55,237,220.6735610961914,,,
2018,11,27,18,5,55,241,220.78800201416016,6027.0,8183.0,4294967189.0
2018,11,27,18,5,55,245,220.74508666992188,,,
2018,11,27,18,5,55,249,220.3531265258789,,,
2018,11,27,18,5,55,252,219.90680694580078,,,
2018,11,27,18,5,55,256,219.78092193603516,,,
2018,11,27,18,5,55,260,219.7580337524414,5968.0,8183.0,4294967110.0
2018,11,27,18,5,55,264,219.77519989013672,,,
2018,11,27,18,5,55,268,219.66075897216797,,,
2018,11,27,18,5,55,272,219.6807861328125,,,
2018,11,27,18,5,55,276,219.86961364746094,,,
2018,11,27,18,5,55,280,219.8009490966797,5987.0,8114.0,4294967012.0
2018,11,27,18,5,55,284,219.6950912475586,,,
2018,11,27,18,5,55,288,219.71511840820312,,,
2018,11,27,18,5,55,291,219.49195861816406,,,
2018,11,27,18,5,55,295,219.36893463134766,,,
2018,11,27,18,5,55,299,219.4690704345703,6085.0,8114.0,4294967091.0
2018,11,27,18,5,55,303,219.5119857788086,,,
2018,11,27,18,5,55,307,219.4662094116211,,,
2018,11,27,18,5,55,311,219.16580200195312,,,
2018,11,27,18,5,55,315,218.7509536743164,,,
2018,11,27,18,5,55,319,219.20299530029297,,,
2018,11,27,18,5,55,323,220.1986312866211,,,
2018,11,27,18,5,55,327,222.381591796875,,,
2018,11,27,18,5,55,331,224.69615936279297,,,
2018,11,27,18,5,55,334,227.4456024169922,,,
2018,11,27,18,5,55,338,231.5540313720703,4294967208.0,6105.0,7977.0
2018,11,27,18,5,55,342,237.25032806396484,,,
2018,11,27,18,5,55,346,242.4001693725586,,,
2018,11,27,18,5,55,350,242.1712875366211,,,
2018,11,27,18,5,55,354,235.01873016357422,,,
2018,11,27,18,5,55,358,228.74736785888672,4294967130.0,5929.0,8055.0
2018,11,27,18,5,55,362,224.7905731201172,,,
2018,11,27,18,5,55,366,217.38052368164062,,,
2018,11,27,18,5,55,370,215.5895233154297,,,
2018,11,27,18,5,55,374,218.32752227783203,,,
2018,11,27,18,5,55,377,220.12996673583984,4294967287.0,5987.0,8241.0
2018,11,27,18,5,55,381,221.05979919433594,,,
2018,11,27,18,5,55,385,220.77655792236328,,,
2018,11,27,18,5,55,389,220.35598754882812,,,
2018,11,27,18,5,55,393,220.08419036865234,,,
2018,11,27,18,5,55,397,220.0756072998047,4294967051.0,6105.0,8163.0
2018,11,27,18,5,55,401,219.75231170654297,,,
2018,11,27,18,5,55,405,219.9554443359375,,,
2018,11,27,18,5,55,409,219.81525421142578,,,
2018,11,27,18,5,55,413,219.72942352294922,,,
2018,11,27,18,5,55,416,219.66934204101562,4294967267.0,6027.0,7996.0
2018,11,27,18,5,55,420,219.97833251953125,,,
2018,11,27,18,5,55,424,220.0326919555664,,,
2018,11,27,18,5,55,428,219.97547149658203,,,
2018,11,27,18,5,55,432,219.90966796875,,,
2018,11,27,18,5,55,436,219.86103057861328,4294967189.0,5968.0,8134.0
2018,11,27,18,5,55,440,220.0927734375,,,
2018,11,27,18,5,55,444,220.1070785522461,,,
2018,11,27,18,5,55,448,220.31307220458984,,,
2018,11,27,18,5,55,452,220.33309936523438,,,
2018,11,27,18,5,55,456,220.32737731933594,4294967130.0,6027.0,8114.0
2018,11,27,18,5,55,459,220.46184539794922,,,
2018,11,27,18,5,55,463,220.36457061767578,,,
2018,11,27,18,5,55,467,220.34454345703125,,,
2018,11,27,18,5,55,471,220.35884857177734,,,
2018,11,27,18,5,55,475,220.43895721435547,4294967169.0,6105.0,8075.0
2018,11,27,18,5,55,479,220.50189971923828,,,
2018,11,27,18,5,55,483,220.79086303710938,,,
2018,11,27,18,5,55,487,220.90530395507812,,,
2018,11,27,18,5,55,491,220.9796905517578,,,
2018,11,27,18,5,55,495,220.87955474853516,4294967110.0,6105.0,8094.0
2018,11,27,18,5,55,499,221.10271453857422,,,
2018,11,27,18,5,55,502,221.42314910888672,,,
2018,11,27,18,5,55,506,221.55475616455078,,,
2018,11,27,18,5,55,510,221.55475616455078,,,
2018,11,27,18,5,55,514,221.68922424316406,4294967051.0,6085.0,8055.0
2018,11,27,18,5,55,518,221.79794311523438,,,
2018,11,27,18,5,55,522,221.88949584960938,,,
2018,11,27,18,5,55,526,222.10407257080078,,,
2018,11,27,18,5,55,530,222.2270965576172,,,
2018,11,27,18,5,55,534,222.22423553466797,4294967110.0,6105.0,8114.0
2018,11,27,18,5,55,538,222.37014770507812,,,
2018,11,27,18,5,55,541,222.5475311279297,,,
2018,11,27,18,5,55,545,222.6848602294922,,,
2018,11,27,18,5,55,549,222.52464294433594,,,
2018,11,27,18,5,55,553,222.37873077392578,4294967130.0,6085.0,8075.0
2018,11,27,18,5,55,557,222.29290008544922,,,
2018,11,27,18,5,55,561,222.19276428222656,,,
2018,11,27,18,5,55,565,222.08404541015625,,,
2018,11,27,18,5,55,569,221.9066619873047,,,
2018,11,27,18,5,55,573,221.62914276123047,4294967110.0,6105.0,8134.0
2018,11,27,18,5,55,577,221.39739990234375,,,
2018,11,27,18,5,55,581,221.31729125976562,,,
2018,11,27,18,5,55,584,221.07982635498047,,,
2018,11,27,18,5,55,588,220.96538543701172,,,
2018,11,27,18,5,55,592,220.78227996826172,4294967110.0,6115.0,8036.0
2018,11,27,18,5,55,596,220.5047607421875,,,
2018,11,27,18,5,55,600,220.32451629638672,,,
2018,11,27,18,5,55,604,220.11280059814453,,,
2018,11,27,18,5,55,608,219.91252899169922,,,
2018,11,27,18,5,55,612,219.7408676147461,4294967130.0,6105.0,8163.0
2018,11,27,18,5,55,616,219.44904327392578,,,
2018,11,27,18,5,55,620,219.3603515625,,,
2018,11,27,18,5,55,624,219.31171417236328,,,
2018,11,27,18,5,55,627,219.15721893310547,,,
2018,11,27,18,5,55,631,218.82247924804688,4294967032.0,6085.0,8094.0
2018,11,27,18,5,55,635,218.63651275634766,,,
2018,11,27,18,5,55,639,218.53923797607422,,,
2018,11,27,18,5,55,643,218.39618682861328,,,
2018,11,27,18,5,55,647,218.28460693359375,,,
2018,11,27,18,5,55,651,218.05858612060547,4294967208.0,6066.0,8094.0
2018,11,27,18,5,55,655,217.51785278320312,,,
2018,11,27,18,5,55,659,217.33760833740234,,,
2018,11,27,18,5,55,663,217.3633575439453,,,
2018,11,27,18,5,55,666,217.3175811767578,,,
2018,11,27,18,5,55,670,217.3748016357422,4294967071.0,6046.0,8055.0
2018,11,27,18,5,55,674,217.16880798339844,,,
2018,11,27,18,5,55,678,217.34905242919922,,,
2018,11,27,18,5,55,682,217.39768981933594,,,
2018,11,27,18,5,55,686,217.4663543701172,,,
2018,11,27,18,5,55,690,217.38052368164062,4294967130.0,6085.0,8114.0
2018,11,27,18,5,55,694,217.32044219970703,,,
2018,11,27,18,5,55,698,217.30899810791016,,,
2018,11,27,18,5,55,702,217.40341186523438,,,
2018,11,27,18,5,55,706,217.38910675048828,,,
2018,11,27,18,5,55,709,217.40341186523438,4294967110.0,6115.0,8094.0
2018,11,27,18,5,55,713,217.25177764892578,,,
2018,11,27,18,5,55,717,217.3147201538086,,,
